MAX86176reg0x10,MAX86176reg0x11,MAX86176reg0x12,MAX86176reg0x13,MAX86176reg0x14,MAX86176reg0x18,MAX86176reg0x19,MAX86176reg0x1A,MAX86176reg0x1C,MAX86176reg0x1D,MAX86176reg0x1E,MAX86176reg0x20,MAX86176reg0x21,MAX86176reg0x22,MAX86176reg0x23,MAX86176reg0x24,MAX86176reg0x25,MAX86176reg0x26
0,0,MAX86176reg0xFE,MAX86176reg0xFF,KX122reg0x18,KX122reg0x1B,reg0xFF,LIS2DSreg0x20,LIS2DSreg0x20,accelID,fileParseID,0,0,RTCpreScale,WallClock_B3,WallClock_B2,WallClock_B1,WallClock_B0,UseAcc,WallClock_B5,WallClock_B4,
MAX86176reg0x28,MAX86176reg0x29,MAX86176reg0x2a,MAX86176reg0x2b,MAX86176reg0x2c,MAX86176reg0x2d,MAX86176reg0x2e,0,0,MAX86176reg0x30,MAX86176reg0x31,MAX86176reg0x32,MAX86176reg0x33,MAX86176reg0x34,MAX86176reg0x35,MAX86176reg0x36,0,0,
MAX86176reg0x38,MAX86176reg0x39,MAX86176reg0x3a,MAX86176reg0x3b,MAX86176reg0x3c,MAX86176reg0x3d,MAX86176reg0x3e,0,0,MAX86176reg0x40,MAX86176reg0x41,MAX86176reg0x42,MAX86176reg0x43,MAX86176reg0x44,MAX86176reg0x45,MAX86176reg0x46,0,0,
MAX86176reg0x48,MAX86176reg0x49,MAX86176reg0x4a,MAX86176reg0x4b,MAX86176reg0x4c,MAX86176reg0x4d,MAX86176reg0x4e,0,0,MAX86176reg0x50,MAX86176reg0x51,MAX86176reg0x52,MAX86176reg0x53,MAX86176reg0x54,MAX86176reg0x55,MAX86176reg0x56,0,0,
MAX86176reg0x58,MAX86176reg0x59,MAX86176reg0x5a,MAX86176reg0x5b,MAX86176reg0x5c,MAX86176reg0x5d,MAX86176reg0x5e,0,0,MAX86176reg0x60,MAX86176reg0x61,MAX86176reg0x62,MAX86176reg0x63,MAX86176reg0x64,MAX86176reg0x65,MAX86176reg0x66,0,0,
MAX86176reg0x90,MAX86176reg0x91,MAX86176reg0x92,MAX86176reg0x93,MAX86176reg0x94,MAX86176reg0x95,MAX86176reg0x96,MAX86176reg0x97,MAX86176reg0x98,MAX86176reg0x99,MAX86176reg0x9A,MAX86176reg0x9B,MAX86176reg0x9E,MAX86176reg0xA8,MAX86176reg0xA9,0,0,0,
0x0a,0x07,0x04,0x00,0x55,0x80,0x9f,0x3f,0x20,0x00,0x6d,0x08,0x18,0x3f,0x50,0x08,0x14,0x00,
0x00,0x00,0x42,0x39,0x25,0x8f,0x02,0x00,0x00,0x00,0x1f,0x81,0x7b,0xa5,0xf3,0x01,0x01,0x92,
0x01,0x01,0x01,0x01,0x01,0x01,0x01,0x00,0x00,0x02,0x1a,0x3f,0x50,0x01,0x28,0x00,0x00,0x00,
0x00,0x00,0x00,0x00,0x00,0x00,0x00,0x00,0x00,0x02,0x1a,0x3f,0x50,0x01,0x28,0x00,0x00,0x00,
0x00,0x00,0x00,0x00,0x00,0x00,0x00,0x00,0x00,0x02,0x1a,0x3f,0x50,0x01,0x28,0x00,0x00,0x00,
0x00,0x00,0x00,0x00,0x00,0x00,0x00,0x00,0x00,0x02,0x1a,0x3f,0x50,0x01,0x28,0x00,0x00,0x01,
0x02,0x80,0x3f,0x00,0x64,0x82,0x00,0x70,0x80,0x00,0x05,0x05,0x00,0xcf,0x40,0x00,0x00,0x00,
start time, 12.10.2024 12:06:57:267
expected tags,0,1,2,
Timestamp[Day.Month.Year Hour:Minute:Second:Milisecond],sampleNum,tagLEDC1_PD1,tagLEDC2_PD1,tagLEDC3_PD1,LED1_PPG1,LED2_PPG1,LED3_PPG1,ACC_X[mg],ACC_Y[mg],ACC_Z[mg]
12.10.2024 12:06:57:290,1,1,2,0,128795.000000,100486.000000,28722.000000,14.000000,-464.000000,891.000000
12.10.2024 12:06:57:293,2,1,2,0,128784.000000,100489.000000,28725.000000,16.000000,-465.000000,890.000000
12.10.2024 12:06:57:296,3,1,2,0,128770.000000,100489.000000,28727.000000,15.000000,-463.000000,890.000000
12.10.2024 12:06:57:299,4,1,2,0,128766.000000,100495.000000,28731.000000,19.000000,-468.000000,889.000000
12.10.2024 12:06:57:303,5,1,2,0,128760.000000,100498.000000,28734.000000,15.000000,-465.000000,889.000000
12.10.2024 12:06:57:306,6,1,2,0,128753.000000,100495.000000,28736.000000,13.000000,-461.000000,888.000000
12.10.2024 12:06:57:309,7,1,2,0,128747.000000,100501.000000,28733.000000,13.000000,-464.000000,892.000000
12.10.2024 12:06:57:312,8,1,2,0,128735.000000,100502.000000,28730.000000,19.000000,-467.000000,898.000000
12.10.2024 12:06:57:316,9,1,2,0,128730.000000,100507.000000,28735.000000,14.000000,-457.000000,891.000000
12.10.2024 12:06:57:319,10,1,2,0,128731.000000,100506.000000,28736.000000,18.000000,-460.000000,892.000000
12.10.2024 12:06:57:322,11,1,2,0,128720.000000,100509.000000,28741.000000,15.000000,-465.000000,894.000000
12.10.2024 12:06:57:325,12,1,2,0,128716.000000,100512.000000,28743.000000,20.000000,-466.000000,894.000000
12.10.2024 12:06:57:329,13,1,2,0,128713.000000,100512.000000,28742.000000,17.000000,-466.000000,894.000000
12.10.2024 12:06:57:332,14,1,2,0,128704.000000,100514.000000,28740.000000,15.000000,-464.000000,895.000000
12.10.2024 12:06:57:335,15,1,2,0,128693.000000,100518.000000,28737.000000,19.000000,-466.000000,887.000000
12.10.2024 12:06:57:338,16,1,2,0,128697.000000,100515.000000,28741.000000,17.000000,-466.000000,893.000000
12.10.2024 12:06:57:342,17,1,2,0,128692.000000,100520.000000,28740.000000,17.000000,-464.000000,887.000000
12.10.2024 12:06:57:345,18,1,2,0,128685.000000,100518.000000,28747.000000,16.000000,-455.000000,892.000000
12.10.2024 12:06:57:348,19,1,2,0,128679.000000,100521.000000,28739.000000,15.000000,-462.000000,892.000000
12.10.2024 12:06:57:351,20,1,2,0,128672.000000,100524.000000,28740.000000,16.000000,-463.000000,890.000000
12.10.2024 12:06:57:355,21,1,2,0,128669.000000,100522.000000,28743.000000,18.000000,-460.000000,888.000000
12.10.2024 12:06:57:358,22,1,2,0,128666.000000,100517.000000,28740.000000,18.000000,-466.000000,892.000000
12.10.2024 12:06:57:361,23,1,2,0,128657.000000,100522.000000,28740.000000,19.000000,-460.000000,889.000000
12.10.2024 12:06:57:364,24,1,2,0,128656.000000,100525.000000,28742.000000,14.000000,-463.000000,893.000000
12.10.2024 12:06:57:368,25,1,2,0,128654.000000,100529.000000,28744.000000,18.000000,-462.000000,892.000000
12.10.2024 12:06:57:371,26,1,2,0,128646.000000,100524.000000,28739.000000,17.000000,-463.000000,892.000000
12.10.2024 12:06:57:374,27,1,2,0,128638.000000,100526.000000,28742.000000,18.000000,-462.000000,892.000000
12.10.2024 12:06:57:377,28,1,2,0,128634.000000,100525.000000,28743.000000,12.000000,-466.000000,888.000000
12.10.2024 12:06:57:381,29,1,2,0,128630.000000,100527.000000,28734.000000,19.000000,-467.000000,892.000000
12.10.2024 12:06:57:384,30,1,2,0,128625.000000,100528.000000,28734.000000,13.000000,-463.000000,893.000000
12.10.2024 12:06:57:387,31,1,2,0,128624.000000,100526.000000,28738.000000,13.000000,-458.000000,893.000000
12.10.2024 12:06:57:390,32,1,2,0,128622.000000,100524.000000,28740.000000,16.000000,-459.000000,894.000000
12.10.2024 12:06:57:394,33,1,2,0,128617.000000,100529.000000,28744.000000,14.000000,-459.000000,889.000000
12.10.2024 12:06:57:397,34,1,2,0,128612.000000,100525.000000,28732.000000,16.000000,-458.000000,888.000000
12.10.2024 12:06:57:400,35,1,2,0,128609.000000,100527.000000,28734.000000,11.000000,-460.000000,891.000000
12.10.2024 12:06:57:403,36,1,2,0,128611.000000,100528.000000,28733.000000,12.000000,-462.000000,893.000000
12.10.2024 12:06:57:407,37,1,2,0,128601.000000,100529.000000,28730.000000,16.000000,-462.000000,889.000000
12.10.2024 12:06:57:410,38,1,2,0,128596.000000,100528.000000,28732.000000,12.000000,-460.000000,893.000000
12.10.2024 12:06:57:413,39,1,2,0,128593.000000,100528.000000,28731.000000,19.000000,-461.000000,892.000000
12.10.2024 12:06:57:416,40,1,2,0,128590.000000,100528.000000,28731.000000,20.000000,-464.000000,897.000000
12.10.2024 12:06:57:420,41,1,2,0,128582.000000,100526.000000,28732.000000,16.000000,-465.000000,894.000000
12.10.2024 12:06:57:423,42,1,2,0,128586.000000,100530.000000,28729.000000,13.000000,-465.000000,891.000000
12.10.2024 12:06:57:426,43,1,2,0,128581.000000,100531.000000,28730.000000,20.000000,-467.000000,891.000000
12.10.2024 12:06:57:429,44,1,2,0,128583.000000,100528.000000,28731.000000,11.000000,-466.000000,894.000000
12.10.2024 12:06:57:433,45,1,2,0,128576.000000,100532.000000,28731.000000,16.000000,-463.000000,891.000000
12.10.2024 12:06:57:436,46,1,2,0,128575.000000,100532.000000,28727.000000,10.000000,-467.000000,891.000000
12.10.2024 12:06:57:439,47,1,2,0,128568.000000,100529.000000,28729.000000,17.000000,-466.000000,888.000000
12.10.2024 12:06:57:442,48,1,2,0,128565.000000,100528.000000,28731.000000,15.000000,-463.000000,893.000000
12.10.2024 12:06:57:445,49,1,2,0,128567.000000,100529.000000,28727.000000,19.000000,-461.000000,889.000000
12.10.2024 12:06:57:449,50,1,2,0,128562.000000,100529.000000,28726.000000,16.000000,-465.000000,893.000000
12.10.2024 12:06:57:452,51,1,2,0,128567.000000,100535.000000,28730.000000,12.000000,-466.000000,895.000000
12.10.2024 12:06:57:455,52,1,2,0,128556.000000,100531.000000,28731.000000,14.000000,-462.000000,894.000000
12.10.2024 12:06:57:458,53,1,2,0,128565.000000,100536.000000,28731.000000,18.000000,-463.000000,892.000000
12.10.2024 12:06:57:462,54,1,2,0,128559.000000,100537.000000,28730.000000,16.000000,-464.000000,884.000000
12.10.2024 12:06:57:465,55,1,2,0,128557.000000,100534.000000,28730.000000,19.000000,-460.000000,893.000000
12.10.2024 12:06:57:468,56,1,2,0,128555.000000,100534.000000,28730.000000,11.000000,-464.000000,892.000000
12.10.2024 12:06:57:471,57,1,2,0,128559.000000,100534.000000,28730.000000,17.000000,-460.000000,888.000000
12.10.2024 12:06:57:475,58,1,2,0,128555.000000,100536.000000,28730.000000,12.000000,-458.000000,894.000000
12.10.2024 12:06:57:478,59,1,2,0,128558.000000,100537.000000,28730.000000,13.000000,-463.000000,890.000000
12.10.2024 12:06:57:481,60,1,2,0,128549.000000,100539.000000,28730.000000,14.000000,-459.000000,896.000000
12.10.2024 12:06:57:484,61,1,2,0,128551.000000,100535.000000,28728.000000,19.000000,-463.000000,894.000000
12.10.2024 12:06:57:488,62,1,2,0,128548.000000,100537.000000,28728.000000,13.000000,-464.000000,890.000000
12.10.2024 12:06:57:491,63,1,2,0,128551.000000,100537.000000,28730.000000,14.000000,-457.000000,890.000000
12.10.2024 12:06:57:494,64,1,2,0,128543.000000,100537.000000,28734.000000,9.000000,-459.000000,894.000000
12.10.2024 12:06:57:497,65,1,2,0,128548.000000,100535.000000,28730.000000,14.000000,-455.000000,887.000000
12.10.2024 12:06:57:501,66,1,2,0,128549.000000,100540.000000,28735.000000,15.000000,-457.000000,894.000000
12.10.2024 12:06:57:504,67,1,2,0,128546.000000,100541.000000,28733.000000,13.000000,-463.000000,890.000000
12.10.2024 12:06:57:507,68,1,2,0,128541.000000,100536.000000,28738.000000,13.000000,-462.000000,893.000000
12.10.2024 12:06:57:510,69,1,2,0,128540.000000,100533.000000,28732.000000,12.000000,-463.000000,893.000000
12.10.2024 12:06:57:514,70,1,2,0,128536.000000,100536.000000,28732.000000,16.000000,-460.000000,892.000000
12.10.2024 12:06:57:517,71,1,2,0,128538.000000,100533.000000,28732.000000,16.000000,-463.000000,893.000000
12.10.2024 12:06:57:520,72,1,2,0,128533.000000,100536.000000,28732.000000,12.000000,-458.000000,890.000000
12.10.2024 12:06:57:523,73,1,2,0,128533.000000,100534.000000,28735.000000,17.000000,-461.000000,894.000000
12.10.2024 12:06:57:527,74,1,2,0,128534.000000,100537.000000,28736.000000,15.000000,-461.000000,892.000000
12.10.2024 12:06:57:530,75,1,2,0,128533.000000,100538.000000,28737.000000,14.000000,-460.000000,893.000000
12.10.2024 12:06:57:533,76,1,2,0,128526.000000,100537.000000,28734.000000,12.000000,-471.000000,890.000000
12.10.2024 12:06:57:536,77,1,2,0,128519.000000,100529.000000,28738.000000,14.000000,-468.000000,892.000000
12.10.2024 12:06:57:540,78,1,2,0,128524.000000,100529.000000,28736.000000,14.000000,-465.000000,889.000000
12.10.2024 12:06:57:543,79,1,2,0,128518.000000,100529.000000,28736.000000,11.000000,-472.000000,889.000000
12.10.2024 12:06:57:546,80,1,2,0,128515.000000,100531.000000,28739.000000,19.000000,-469.000000,888.000000
12.10.2024 12:06:57:549,81,1,2,0,128510.000000,100532.000000,28743.000000,13.000000,-467.000000,890.000000
12.10.2024 12:06:57:553,82,1,2,0,128509.000000,100535.000000,28743.000000,16.000000,-465.000000,892.000000
12.10.2024 12:06:57:556,83,1,2,0,128514.000000,100531.000000,28742.000000,16.000000,-463.000000,890.000000
12.10.2024 12:06:57:559,84,1,2,0,128520.000000,100533.000000,28744.000000,21.000000,-465.000000,891.000000
12.10.2024 12:06:57:562,85,1,2,0,128513.000000,100534.000000,28740.000000,14.000000,-470.000000,893.000000
12.10.2024 12:06:57:566,86,1,2,0,128515.000000,100538.000000,28743.000000,17.000000,-470.000000,892.000000
12.10.2024 12:06:57:569,87,1,2,0,128518.000000,100541.000000,28744.000000,17.000000,-462.000000,887.000000
12.10.2024 12:06:57:572,88,1,2,0,128518.000000,100535.000000,28741.000000,12.000000,-463.000000,889.000000
12.10.2024 12:06:57:575,89,1,2,0,128516.000000,100539.000000,28746.000000,13.000000,-455.000000,891.000000
12.10.2024 12:06:57:579,90,1,2,0,128519.000000,100541.000000,28743.000000,10.000000,-458.000000,888.000000
12.10.2024 12:06:57:582,91,1,2,0,128523.000000,100540.000000,28745.000000,12.000000,-456.000000,887.000000
12.10.2024 12:06:57:585,92,1,2,0,128528.000000,100548.000000,28749.000000,10.000000,-450.000000,894.000000
12.10.2024 12:06:57:588,93,1,2,0,128531.000000,100548.000000,28751.000000,12.000000,-455.000000,895.000000
12.10.2024 12:06:57:591,94,1,2,0,128531.000000,100548.000000,28749.000000,12.000000,-460.000000,896.000000
12.10.2024 12:06:57:595,95,1,2,0,128527.000000,100550.000000,28751.000000,13.000000,-458.000000,895.000000
12.10.2024 12:06:57:598,96,1,2,0,128529.000000,100545.000000,28750.000000,18.000000,-464.000000,888.000000
12.10.2024 12:06:57:601,97,1,2,0,128527.000000,100550.000000,28750.000000,14.000000,-463.000000,892.000000
12.10.2024 12:06:57:604,98,1,2,0,128526.000000,100547.000000,28754.000000,16.000000,-458.000000,891.000000
12.10.2024 12:06:57:608,99,1,2,0,128523.000000,100551.000000,28752.000000,12.000000,-465.000000,890.000000
12.10.2024 12:06:57:611,100,1,2,0,128527.000000,100548.000000,28752.000000,14.000000,-462.000000,894.000000
12.10.2024 12:06:57:614,101,1,2,0,128526.000000,100550.000000,28750.000000,9.000000,-467.000000,894.000000
12.10.2024 12:06:57:617,102,1,2,0,128525.000000,100550.000000,28757.000000,10.000000,-469.000000,889.000000
12.10.2024 12:06:57:621,103,1,2,0,128521.000000,100548.000000,28754.000000,13.000000,-464.000000,893.000000
12.10.2024 12:06:57:624,104,1,2,0,128528.000000,100548.000000,28756.000000,12.000000,-463.000000,891.000000
12.10.2024 12:06:57:627,105,1,2,0,128525.000000,100549.000000,28758.000000,12.000000,-459.000000,893.000000
12.10.2024 12:06:57:630,106,1,2,0,128526.000000,100554.000000,28753.000000,16.000000,-466.000000,895.000000
12.10.2024 12:06:57:634,107,1,2,0,128524.000000,100557.000000,28759.000000,11.000000,-463.000000,895.000000
12.10.2024 12:06:57:637,108,1,2,0,128529.000000,100559.000000,28763.000000,13.000000,-460.000000,894.000000
12.10.2024 12:06:57:640,109,1,2,0,128529.000000,100558.000000,28763.000000,17.000000,-462.000000,894.000000
12.10.2024 12:06:57:643,110,1,2,0,128533.000000,100560.000000,28761.000000,13.000000,-461.000000,892.000000
12.10.2024 12:06:57:647,111,1,2,0,128533.000000,100560.000000,28762.000000,12.000000,-463.000000,893.000000
12.10.2024 12:06:57:650,112,1,2,0,128527.000000,100558.000000,28764.000000,16.000000,-463.000000,894.000000
12.10.2024 12:06:57:653,113,1,2,0,128527.000000,100561.000000,28766.000000,11.000000,-454.000000,894.000000
12.10.2024 12:06:57:656,114,1,2,0,128526.000000,100565.000000,28772.000000,11.000000,-456.000000,889.000000
12.10.2024 12:06:57:660,115,1,2,0,128523.000000,100564.000000,28769.000000,15.000000,-452.000000,896.000000
12.10.2024 12:06:57:663,116,1,2,0,128526.000000,100566.000000,28764.000000,12.000000,-456.000000,894.000000
12.10.2024 12:06:57:666,117,1,2,0,128526.000000,100562.000000,28770.000000,19.000000,-453.000000,890.000000
12.10.2024 12:06:57:669,118,1,2,0,128522.000000,100563.000000,28769.000000,19.000000,-453.000000,890.000000
12.10.2024 12:06:57:673,119,1,2,0,128531.000000,100560.000000,28775.000000,12.000000,-458.000000,894.000000
12.10.2024 12:06:57:676,120,1,2,0,128523.000000,100559.000000,28776.000000,12.000000,-460.000000,895.000000
12.10.2024 12:06:57:679,121,1,2,0,128521.000000,100562.000000,28775.000000,17.000000,-463.000000,892.000000
12.10.2024 12:06:57:682,122,1,2,0,128519.000000,100563.000000,28781.000000,11.000000,-460.000000,897.000000
12.10.2024 12:06:57:686,123,1,2,0,128515.000000,100562.000000,28780.000000,12.000000,-461.000000,894.000000
12.10.2024 12:06:57:689,124,1,2,0,128517.000000,100565.000000,28781.000000,11.000000,-460.000000,893.000000
12.10.2024 12:06:57:692,125,1,2,0,128521.000000,100566.000000,28784.000000,14.000000,-467.000000,890.000000
12.10.2024 12:06:57:695,126,1,2,0,128517.000000,100571.000000,28791.000000,15.000000,-460.000000,893.000000
12.10.2024 12:06:57:699,127,1,2,0,128517.000000,100574.000000,28797.000000,15.000000,-468.000000,892.000000
12.10.2024 12:06:57:702,128,1,2,0,128520.000000,100572.000000,28795.000000,10.000000,-467.000000,894.000000
12.10.2024 12:06:57:705,129,1,2,0,128526.000000,100578.000000,28801.000000,16.000000,-465.000000,892.000000
12.10.2024 12:06:57:708,130,1,2,0,128522.000000,100582.000000,28804.000000,13.000000,-474.000000,892.000000
12.10.2024 12:06:57:712,131,1,2,0,128520.000000,100589.000000,28812.000000,17.000000,-465.000000,894.000000
12.10.2024 12:06:57:715,132,1,2,0,128516.000000,100584.000000,28805.000000,17.000000,-468.000000,887.000000
12.10.2024 12:06:57:718,133,1,2,0,128518.000000,100587.000000,28811.000000,17.000000,-468.000000,883.000000
12.10.2024 12:06:57:721,134,1,2,0,128521.000000,100587.000000,28807.000000,15.000000,-462.000000,890.000000
12.10.2024 12:06:57:725,135,1,2,0,128515.000000,100591.000000,28810.000000,14.000000,-464.000000,891.000000
12.10.2024 12:06:57:728,136,1,2,0,128516.000000,100593.000000,28806.000000,7.000000,-461.000000,893.000000
12.10.2024 12:06:57:731,137,1,2,0,128515.000000,100593.000000,28807.000000,14.000000,-462.000000,891.000000
12.10.2024 12:06:57:734,138,1,2,0,128511.000000,100593.000000,28808.000000,13.000000,-461.000000,890.000000
12.10.2024 12:06:57:737,139,1,2,0,128513.000000,100595.000000,28810.000000,12.000000,-464.000000,890.000000
12.10.2024 12:06:57:741,140,1,2,0,128515.000000,100600.000000,28812.000000,13.000000,-461.000000,890.000000
12.10.2024 12:06:57:744,141,1,2,0,128515.000000,100600.000000,28811.000000,14.000000,-458.000000,893.000000
12.10.2024 12:06:57:747,142,1,2,0,128505.000000,100604.000000,28809.000000,18.000000,-459.000000,894.000000
12.10.2024 12:06:57:750,143,1,2,0,128512.000000,100601.000000,28807.000000,16.000000,-460.000000,895.000000
12.10.2024 12:06:57:754,144,1,2,0,128509.000000,100603.000000,28802.000000,13.000000,-460.000000,889.000000
12.10.2024 12:06:57:757,145,1,2,0,128504.000000,100601.000000,28802.000000,17.000000,-461.000000,888.000000
12.10.2024 12:06:57:760,146,1,2,0,128504.000000,100604.000000,28801.000000,12.000000,-460.000000,889.000000
12.10.2024 12:06:57:763,147,1,2,0,128495.000000,100599.000000,28796.000000,10.000000,-465.000000,892.000000
12.10.2024 12:06:57:767,148,1,2,0,128495.000000,100599.000000,28795.000000,15.000000,-465.000000,889.000000
12.10.2024 12:06:57:770,149,1,2,0,128491.000000,100599.000000,28789.000000,12.000000,-464.000000,892.000000
12.10.2024 12:06:57:773,150,1,2,0,128489.000000,100598.000000,28791.000000,15.000000,-465.000000,891.000000
12.10.2024 12:06:57:776,151,1,2,0,128489.000000,100595.000000,28784.000000,18.000000,-464.000000,894.000000
12.10.2024 12:06:57:780,152,1,2,0,128480.000000,100594.000000,28785.000000,12.000000,-465.000000,890.000000
12.10.2024 12:06:57:783,153,1,2,0,128481.000000,100595.000000,28781.000000,16.000000,-464.000000,895.000000
12.10.2024 12:06:57:786,154,1,2,0,128478.000000,100595.000000,28779.000000,21.000000,-461.000000,890.000000
12.10.2024 12:06:57:789,155,1,2,0,128477.000000,100590.000000,28772.000000,18.000000,-464.000000,888.000000
12.10.2024 12:06:57:793,156,1,2,0,128474.000000,100588.000000,28775.000000,20.000000,-461.000000,887.000000
12.10.2024 12:06:57:796,157,1,2,0,128470.000000,100589.000000,28770.000000,12.000000,-460.000000,888.000000
12.10.2024 12:06:57:799,158,1,2,0,128471.000000,100590.000000,28764.000000,12.000000,-463.000000,887.000000
12.10.2024 12:06:57:802,159,1,2,0,128475.000000,100592.000000,28762.000000,15.000000,-456.000000,894.000000
12.10.2024 12:06:57:806,160,1,2,0,128474.000000,100591.000000,28767.000000,11.000000,-456.000000,890.000000
12.10.2024 12:06:57:809,161,1,2,0,128472.000000,100593.000000,28762.000000,13.000000,-460.000000,895.000000
12.10.2024 12:06:57:812,162,1,2,0,128474.000000,100593.000000,28763.000000,16.000000,-462.000000,894.000000
12.10.2024 12:06:57:815,163,1,2,0,128471.000000,100593.000000,28761.000000,12.000000,-465.000000,893.000000
12.10.2024 12:06:57:819,164,1,2,0,128468.000000,100595.000000,28761.000000,12.000000,-465.000000,893.000000
12.10.2024 12:06:57:822,165,1,2,0,128471.000000,100595.000000,28759.000000,12.000000,-458.000000,891.000000
12.10.2024 12:06:57:825,166,1,2,0,128467.000000,100591.000000,28756.000000,9.000000,-465.000000,893.000000
12.10.2024 12:06:57:828,167,1,2,0,128464.000000,100595.000000,28755.000000,17.000000,-465.000000,885.000000
12.10.2024 12:06:57:832,168,1,2,0,128459.000000,100589.000000,28752.000000,18.000000,-464.000000,892.000000
12.10.2024 12:06:57:835,169,1,2,0,128466.000000,100591.000000,28755.000000,10.000000,-460.000000,893.000000
12.10.2024 12:06:57:838,170,1,2,0,128463.000000,100601.000000,28754.000000,10.000000,-462.000000,894.000000
12.10.2024 12:06:57:841,171,1,2,0,128473.000000,100595.000000,28753.000000,14.000000,-462.000000,894.000000
12.10.2024 12:06:57:845,172,1,2,0,128467.000000,100598.000000,28750.000000,9.000000,-458.000000,891.000000
12.10.2024 12:06:57:848,173,1,2,0,128464.000000,100594.000000,28749.000000,14.000000,-464.000000,897.000000
12.10.2024 12:06:57:851,174,1,2,0,128461.000000,100591.000000,28753.000000,17.000000,-466.000000,892.000000
12.10.2024 12:06:57:854,175,1,2,0,128459.000000,100593.000000,28746.000000,16.000000,-465.000000,896.000000
12.10.2024 12:06:57:858,176,1,2,0,128463.000000,100589.000000,28748.000000,17.000000,-463.000000,892.000000
12.10.2024 12:06:57:861,177,1,2,0,128464.000000,100589.000000,28746.000000,16.000000,-459.000000,889.000000
12.10.2024 12:06:57:864,178,1,2,0,128459.000000,100586.000000,28739.000000,14.000000,-456.000000,893.000000
12.10.2024 12:06:57:867,179,1,2,0,128462.000000,100588.000000,28744.000000,12.000000,-459.000000,895.000000
12.10.2024 12:06:57:871,180,1,2,0,128466.000000,100590.000000,28743.000000,13.000000,-455.000000,893.000000
12.10.2024 12:06:57:874,181,1,2,0,128467.000000,100591.000000,28743.000000,16.000000,-459.000000,891.000000
12.10.2024 12:06:57:877,182,1,2,0,128466.000000,100591.000000,28746.000000,16.000000,-461.000000,891.000000
12.10.2024 12:06:57:880,183,1,2,0,128471.000000,100592.000000,28744.000000,10.000000,-463.000000,894.000000
12.10.2024 12:06:57:884,184,1,2,0,128469.000000,100592.000000,28745.000000,14.000000,-466.000000,890.000000
12.10.2024 12:06:57:887,185,1,2,0,128461.000000,100587.000000,28751.000000,15.000000,-468.000000,894.000000
12.10.2024 12:06:57:890,186,1,2,0,128467.000000,100590.000000,28744.000000,15.000000,-459.000000,891.000000
12.10.2024 12:06:57:893,187,1,2,0,128470.000000,100590.000000,28743.000000,14.000000,-460.000000,889.000000
12.10.2024 12:06:57:896,188,1,2,0,128468.000000,100596.000000,28745.000000,16.000000,-462.000000,892.000000
12.10.2024 12:06:57:900,189,1,2,0,128474.000000,100592.000000,28744.000000,16.000000,-452.000000,889.000000
12.10.2024 12:06:57:903,190,1,2,0,128474.000000,100597.000000,28749.000000,16.000000,-452.000000,886.000000
12.10.2024 12:06:57:906,191,1,2,0,128481.000000,100597.000000,28747.000000,6.000000,-454.000000,894.000000
12.10.2024 12:06:57:909,192,1,2,0,128479.000000,100597.000000,28749.000000,15.000000,-453.000000,890.000000
12.10.2024 12:06:57:913,193,1,2,0,128483.000000,100601.000000,28747.000000,12.000000,-460.000000,891.000000
12.10.2024 12:06:57:916,194,1,2,0,128474.000000,100601.000000,28746.000000,14.000000,-460.000000,894.000000
12.10.2024 12:06:57:919,195,1,2,0,128473.000000,100593.000000,28749.000000,16.000000,-460.000000,894.000000
12.10.2024 12:06:57:922,196,1,2,0,128470.000000,100594.000000,28753.000000,15.000000,-462.000000,890.000000
12.10.2024 12:06:57:926,197,1,2,0,128470.000000,100594.000000,28759.000000,15.000000,-460.000000,891.000000
12.10.2024 12:06:57:929,198,1,2,0,128471.000000,100594.000000,28746.000000,11.000000,-461.000000,893.000000
12.10.2024 12:06:57:932,199,1,2,0,128469.000000,100595.000000,28752.000000,14.000000,-463.000000,888.000000
12.10.2024 12:06:57:935,200,1,2,0,128469.000000,100593.000000,28754.000000,9.000000,-463.000000,891.000000
12.10.2024 12:06:57:939,201,1,2,0,128468.000000,100592.000000,28757.000000,12.000000,-461.000000,894.000000
12.10.2024 12:06:57:942,202,1,2,0,128468.000000,100595.000000,28756.000000,10.000000,-461.000000,894.000000
12.10.2024 12:06:57:945,203,1,2,0,128475.000000,100596.000000,28760.000000,7.000000,-452.000000,894.000000
12.10.2024 12:06:57:948,204,1,2,0,128475.000000,100598.000000,28758.000000,11.000000,-465.000000,893.000000
12.10.2024 12:06:57:952,205,1,2,0,128471.000000,100597.000000,28756.000000,14.000000,-462.000000,896.000000
12.10.2024 12:06:57:955,206,1,2,0,128474.000000,100598.000000,28761.000000,12.000000,-462.000000,893.000000
12.10.2024 12:06:57:958,207,1,2,0,128471.000000,100602.000000,28765.000000,11.000000,-466.000000,893.000000
12.10.2024 12:06:57:961,208,1,2,0,128473.000000,100597.000000,28763.000000,13.000000,-471.000000,893.000000
12.10.2024 12:06:57:965,209,1,2,0,128474.000000,100596.000000,28764.000000,16.000000,-470.000000,894.000000
12.10.2024 12:06:57:968,210,1,2,0,128473.000000,100597.000000,28765.000000,12.000000,-464.000000,893.000000
12.10.2024 12:06:57:971,211,1,2,0,128471.000000,100598.000000,28772.000000,10.000000,-469.000000,892.000000
12.10.2024 12:06:57:974,212,1,2,0,128473.000000,100599.000000,28766.000000,11.000000,-463.000000,895.000000
12.10.2024 12:06:57:978,213,1,2,0,128474.000000,100598.000000,28767.000000,13.000000,-463.000000,888.000000
12.10.2024 12:06:57:981,214,1,2,0,128473.000000,100605.000000,28774.000000,10.000000,-461.000000,894.000000
12.10.2024 12:06:57:984,215,1,2,0,128480.000000,100608.000000,28770.000000,13.000000,-466.000000,891.000000
12.10.2024 12:06:57:987,216,1,2,0,128480.000000,100609.000000,28776.000000,10.000000,-461.000000,894.000000
12.10.2024 12:06:57:991,217,1,2,0,128477.000000,100606.000000,28769.000000,14.000000,-463.000000,892.000000
12.10.2024 12:06:57:994,218,1,2,0,128484.000000,100611.000000,28773.000000,13.000000,-462.000000,890.000000
12.10.2024 12:06:57:997,219,1,2,0,128484.000000,100613.000000,28778.000000,14.000000,-462.000000,887.000000
12.10.2024 12:06:58:0,220,1,2,0,128487.000000,100612.000000,28776.000000,10.000000,-458.000000,889.000000
12.10.2024 12:06:58:4,221,1,2,0,128488.000000,100613.000000,28778.000000,12.000000,-455.000000,893.000000
12.10.2024 12:06:58:7,222,1,2,0,128490.000000,100617.000000,28777.000000,12.000000,-455.000000,891.000000
12.10.2024 12:06:58:10,223,1,2,0,128488.000000,100618.000000,28777.000000,11.000000,-453.000000,894.000000
12.10.2024 12:06:58:13,224,1,2,0,128485.000000,100616.000000,28781.000000,13.000000,-457.000000,892.000000
12.10.2024 12:06:58:17,225,1,2,0,128486.000000,100620.000000,28786.000000,14.000000,-460.000000,894.000000
12.10.2024 12:06:58:20,226,1,2,0,128487.000000,100619.000000,28782.000000,12.000000,-465.000000,892.000000
12.10.2024 12:06:58:23,227,1,2,0,128481.000000,100619.000000,28785.000000,20.000000,-459.000000,887.000000
12.10.2024 12:06:58:26,228,1,2,0,128483.000000,100616.000000,28789.000000,16.000000,-456.000000,891.000000
12.10.2024 12:06:58:30,229,1,2,0,128481.000000,100619.000000,28789.000000,10.000000,-460.000000,895.000000
12.10.2024 12:06:58:33,230,1,2,0,128482.000000,100617.000000,28786.000000,15.000000,-459.000000,896.000000
12.10.2024 12:06:58:36,231,1,2,0,128482.000000,100611.000000,28784.000000,10.000000,-459.000000,892.000000
12.10.2024 12:06:58:39,232,1,2,0,128481.000000,100612.000000,28784.000000,12.000000,-461.000000,897.000000
12.10.2024 12:06:58:42,233,1,2,0,128474.000000,100609.000000,28787.000000,14.000000,-461.000000,892.000000
12.10.2024 12:06:58:46,234,1,2,0,128469.000000,100607.000000,28785.000000,17.000000,-464.000000,884.000000
12.10.2024 12:06:58:49,235,1,2,0,128469.000000,100606.000000,28783.000000,17.000000,-470.000000,888.000000
12.10.2024 12:06:58:52,236,1,2,0,128467.000000,100608.000000,28789.000000,13.000000,-463.000000,888.000000
12.10.2024 12:06:58:55,237,1,2,0,128464.000000,100607.000000,28788.000000,12.000000,-460.000000,889.000000
12.10.2024 12:06:58:59,238,1,2,0,128460.000000,100610.000000,28789.000000,11.000000,-464.000000,892.000000
12.10.2024 12:06:58:62,239,1,2,0,128460.000000,100609.000000,28785.000000,14.000000,-459.000000,891.000000
12.10.2024 12:06:58:65,240,1,2,0,128461.000000,100609.000000,28780.000000,12.000000,-465.000000,896.000000
12.10.2024 12:06:58:68,241,1,2,0,128460.000000,100604.000000,28786.000000,12.000000,-466.000000,886.000000
12.10.2024 12:06:58:72,242,1,2,0,128457.000000,100611.000000,28785.000000,14.000000,-467.000000,893.000000
12.10.2024 12:06:58:75,243,1,2,0,128455.000000,100605.000000,28784.000000,16.000000,-466.000000,888.000000
12.10.2024 12:06:58:78,244,1,2,0,128455.000000,100600.000000,28779.000000,12.000000,-462.000000,897.000000
12.10.2024 12:06:58:81,245,1,2,0,128451.000000,100601.000000,28776.000000,15.000000,-465.000000,891.000000
12.10.2024 12:06:58:85,246,1,2,0,128455.000000,100602.000000,28779.000000,11.000000,-463.000000,888.000000
12.10.2024 12:06:58:88,247,1,2,0,128457.000000,100602.000000,28786.000000,14.000000,-461.000000,892.000000
12.10.2024 12:06:58:91,248,1,2,0,128451.000000,100604.000000,28784.000000,12.000000,-462.000000,891.000000
12.10.2024 12:06:58:94,249,1,2,0,128450.000000,100598.000000,28781.000000,15.000000,-465.000000,887.000000
12.10.2024 12:06:58:98,250,1,2,0,128455.000000,100602.000000,28784.000000,10.000000,-457.000000,897.000000
12.10.2024 12:06:58:101,251,1,2,0,128451.000000,100611.000000,28783.000000,12.000000,-459.000000,891.000000
12.10.2024 12:06:58:104,252,1,2,0,128453.000000,100609.000000,28787.000000,12.000000,-460.000000,892.000000
12.10.2024 12:06:58:107,253,1,2,0,128453.000000,100610.000000,28785.000000,17.000000,-464.000000,889.000000
12.10.2024 12:06:58:111,254,1,2,0,128457.000000,100603.000000,28781.000000,9.000000,-460.000000,896.000000
12.10.2024 12:06:58:114,255,1,2,0,128453.000000,100608.000000,28783.000000,10.000000,-459.000000,894.000000
12.10.2024 12:06:58:117,256,1,2,0,128456.000000,100606.000000,28787.000000,14.000000,-466.000000,891.000000
12.10.2024 12:06:58:120,257,1,2,0,128456.000000,100608.000000,28781.000000,14.000000,-461.000000,892.000000
12.10.2024 12:06:58:124,258,1,2,0,128455.000000,100605.000000,28782.000000,12.000000,-464.000000,889.000000
12.10.2024 12:06:58:127,259,1,2,0,128457.000000,100610.000000,28788.000000,13.000000,-460.000000,892.000000
12.10.2024 12:06:58:130,260,1,2,0,128453.000000,100608.000000,28787.000000,9.000000,-465.000000,895.000000
12.10.2024 12:06:58:133,261,1,2,0,128459.000000,100607.000000,28791.000000,12.000000,-459.000000,892.000000
12.10.2024 12:06:58:137,262,1,2,0,128457.000000,100610.000000,28793.000000,9.000000,-465.000000,895.000000
12.10.2024 12:06:58:140,263,1,2,0,128453.000000,100609.000000,28789.000000,11.000000,-458.000000,894.000000
12.10.2024 12:06:58:143,264,1,2,0,128458.000000,100607.000000,28787.000000,16.000000,-465.000000,900.000000
12.10.2024 12:06:58:146,265,1,2,0,128456.000000,100609.000000,28794.000000,14.000000,-465.000000,894.000000
12.10.2024 12:06:58:150,266,1,2,0,128455.000000,100612.000000,28790.000000,15.000000,-467.000000,891.000000
12.10.2024 12:06:58:153,267,1,2,0,128451.000000,100612.000000,28793.000000,14.000000,-467.000000,892.000000
12.10.2024 12:06:58:156,268,1,2,0,128453.000000,100608.000000,28791.000000,14.000000,-460.000000,888.000000
12.10.2024 12:06:58:159,269,1,2,0,128449.000000,100611.000000,28794.000000,10.000000,-461.000000,891.000000
12.10.2024 12:06:58:163,270,1,2,0,128456.000000,100615.000000,28797.000000,15.000000,-461.000000,894.000000
12.10.2024 12:06:58:166,271,1,2,0,128456.000000,100619.000000,28798.000000,8.000000,-458.000000,894.000000
12.10.2024 12:06:58:169,272,1,2,0,128459.000000,100615.000000,28799.000000,14.000000,-466.000000,892.000000
12.10.2024 12:06:58:172,273,1,2,0,128460.000000,100615.000000,28802.000000,13.000000,-467.000000,894.000000
12.10.2024 12:06:58:176,274,1,2,0,128450.000000,100614.000000,28804.000000,17.000000,-466.000000,891.000000
12.10.2024 12:06:58:179,275,1,2,0,128457.000000,100613.000000,28801.000000,13.000000,-468.000000,893.000000
12.10.2024 12:06:58:182,276,1,2,0,128457.000000,100616.000000,28808.000000,18.000000,-466.000000,892.000000
12.10.2024 12:06:58:185,277,1,2,0,128453.000000,100613.000000,28808.000000,16.000000,-469.000000,893.000000
12.10.2024 12:06:58:188,278,1,2,0,128455.000000,100610.000000,28806.000000,15.000000,-469.000000,886.000000
12.10.2024 12:06:58:192,279,1,2,0,128456.000000,100613.000000,28805.000000,14.000000,-466.000000,893.000000
12.10.2024 12:06:58:195,280,1,2,0,128453.000000,100614.000000,28805.000000,14.000000,-459.000000,884.000000
12.10.2024 12:06:58:198,281,1,2,0,128450.000000,100609.000000,28807.000000,13.000000,-461.000000,889.000000
12.10.2024 12:06:58:201,282,1,2,0,128457.000000,100611.000000,28807.000000,11.000000,-463.000000,893.000000
12.10.2024 12:06:58:205,283,1,2,0,128461.000000,100614.000000,28808.000000,18.000000,-463.000000,891.000000
12.10.2024 12:06:58:208,284,1,2,0,128457.000000,100612.000000,28803.000000,12.000000,-462.000000,893.000000
12.10.2024 12:06:58:211,285,1,2,0,128459.000000,100613.000000,28807.000000,16.000000,-458.000000,894.000000
12.10.2024 12:06:58:214,286,1,2,0,128461.000000,100616.000000,28811.000000,13.000000,-464.000000,892.000000
12.10.2024 12:06:58:218,287,1,2,0,128460.000000,100616.000000,28810.000000,16.000000,-466.000000,888.000000
12.10.2024 12:06:58:221,288,1,2,0,128457.000000,100614.000000,28807.000000,18.000000,-460.000000,888.000000
12.10.2024 12:06:58:224,289,1,2,0,128463.000000,100617.000000,28811.000000,15.000000,-464.000000,890.000000
12.10.2024 12:06:58:227,290,1,2,0,128461.000000,100616.000000,28812.000000,16.000000,-460.000000,894.000000
12.10.2024 12:06:58:231,291,1,2,0,128464.000000,100618.000000,28817.000000,16.000000,-460.000000,891.000000
12.10.2024 12:06:58:234,292,1,2,0,128467.000000,100619.000000,28817.000000,14.000000,-461.000000,892.000000
12.10.2024 12:06:58:237,293,1,2,0,128470.000000,100618.000000,28817.000000,16.000000,-461.000000,894.000000
12.10.2024 12:06:58:240,294,1,2,0,128471.000000,100620.000000,28815.000000,12.000000,-459.000000,884.000000
12.10.2024 12:06:58:244,295,1,2,0,128472.000000,100622.000000,28815.000000,14.000000,-460.000000,892.000000
12.10.2024 12:06:58:247,296,1,2,0,128474.000000,100621.000000,28821.000000,17.000000,-457.000000,893.000000
12.10.2024 12:06:58:250,297,1,2,0,128477.000000,100624.000000,28821.000000,11.000000,-462.000000,889.000000
12.10.2024 12:06:58:253,298,1,2,0,128479.000000,100623.000000,28823.000000,13.000000,-459.000000,887.000000
12.10.2024 12:06:58:257,299,1,2,0,128481.000000,100626.000000,28825.000000,17.000000,-460.000000,892.000000
12.10.2024 12:06:58:260,300,1,2,0,128477.000000,100630.000000,28826.000000,11.000000,-459.000000,891.000000
12.10.2024 12:06:58:263,301,1,2,0,128485.000000,100630.000000,28827.000000,9.000000,-460.000000,894.000000
12.10.2024 12:06:58:266,302,1,2,0,128482.000000,100631.000000,28833.000000,18.000000,-466.000000,895.000000
12.10.2024 12:06:58:270,303,1,2,0,128487.000000,100627.000000,28830.000000,18.000000,-461.000000,894.000000
12.10.2024 12:06:58:273,304,1,2,0,128488.000000,100628.000000,28833.000000,14.000000,-466.000000,892.000000
12.10.2024 12:06:58:276,305,1,2,0,128485.000000,100626.000000,28835.000000,15.000000,-469.000000,892.000000
12.10.2024 12:06:58:279,306,1,2,0,128487.000000,100627.000000,28837.000000,15.000000,-467.000000,891.000000
12.10.2024 12:06:58:283,307,1,2,0,128486.000000,100626.000000,28836.000000,12.000000,-460.000000,892.000000
12.10.2024 12:06:58:286,308,1,2,0,128490.000000,100633.000000,28837.000000,15.000000,-467.000000,891.000000
12.10.2024 12:06:58:289,309,1,2,0,128484.000000,100631.000000,28838.000000,12.000000,-463.000000,894.000000
12.10.2024 12:06:58:292,310,1,2,0,128491.000000,100630.000000,28841.000000,7.000000,-459.000000,896.000000
12.10.2024 12:06:58:296,311,1,2,0,128485.000000,100630.000000,28835.000000,17.000000,-461.000000,894.000000
12.10.2024 12:06:58:299,312,1,2,0,128487.000000,100631.000000,28843.000000,10.000000,-462.000000,887.000000
12.10.2024 12:06:58:302,313,1,2,0,128493.000000,100632.000000,28838.000000,13.000000,-461.000000,893.000000
12.10.2024 12:06:58:305,314,1,2,0,128487.000000,100626.000000,28841.000000,8.000000,-460.000000,894.000000
12.10.2024 12:06:58:309,315,1,2,0,128481.000000,100631.000000,28841.000000,7.000000,-461.000000,888.000000
12.10.2024 12:06:58:312,316,1,2,0,128483.000000,100631.000000,28843.000000,15.000000,-459.000000,892.000000
12.10.2024 12:06:58:315,317,1,2,0,128490.000000,100628.000000,28843.000000,11.000000,-460.000000,890.000000
12.10.2024 12:06:58:318,318,1,2,0,128486.000000,100628.000000,28847.000000,13.000000,-460.000000,886.000000
12.10.2024 12:06:58:322,319,1,2,0,128487.000000,100628.000000,28850.000000,10.000000,-460.000000,887.000000
12.10.2024 12:06:58:325,320,1,2,0,128485.000000,100627.000000,28845.000000,13.000000,-466.000000,887.000000
12.10.2024 12:06:58:328,321,1,2,0,128488.000000,100625.000000,28846.000000,9.000000,-464.000000,889.000000
12.10.2024 12:06:58:331,322,1,2,0,128488.000000,100627.000000,28853.000000,12.000000,-468.000000,886.000000
12.10.2024 12:06:58:335,323,1,2,0,128489.000000,100628.000000,28852.000000,10.000000,-461.000000,890.000000
12.10.2024 12:06:58:338,324,1,2,0,128488.000000,100630.000000,28853.000000,15.000000,-463.000000,892.000000
12.10.2024 12:06:58:341,325,1,2,0,128495.000000,100633.000000,28850.000000,12.000000,-465.000000,892.000000
12.10.2024 12:06:58:344,326,1,2,0,128496.000000,100630.000000,28854.000000,15.000000,-467.000000,891.000000
12.10.2024 12:06:58:347,327,1,2,0,128493.000000,100632.000000,28849.000000,12.000000,-465.000000,891.000000
12.10.2024 12:06:58:351,328,1,2,0,128497.000000,100633.000000,28859.000000,14.000000,-462.000000,893.000000
12.10.2024 12:06:58:354,329,1,2,0,128502.000000,100631.000000,28865.000000,15.000000,-463.000000,885.000000
12.10.2024 12:06:58:357,330,1,2,0,128500.000000,100634.000000,28861.000000,9.000000,-457.000000,889.000000
12.10.2024 12:06:58:360,331,1,2,0,128507.000000,100637.000000,28856.000000,14.000000,-456.000000,891.000000
12.10.2024 12:06:58:364,332,1,2,0,128515.000000,100638.000000,28860.000000,8.000000,-452.000000,899.000000
12.10.2024 12:06:58:367,333,1,2,0,128515.000000,100641.000000,28867.000000,9.000000,-456.000000,894.000000
12.10.2024 12:06:58:370,334,1,2,0,128510.000000,100642.000000,28866.000000,15.000000,-463.000000,893.000000
12.10.2024 12:06:58:373,335,1,2,0,128509.000000,100640.000000,28866.000000,10.000000,-456.000000,894.000000
12.10.2024 12:06:58:377,336,1,2,0,128514.000000,100643.000000,28871.000000,12.000000,-460.000000,892.000000
12.10.2024 12:06:58:380,337,1,2,0,128514.000000,100643.000000,28873.000000,17.000000,-462.000000,887.000000
12.10.2024 12:06:58:383,338,1,2,0,128514.000000,100645.000000,28875.000000,13.000000,-459.000000,894.000000
12.10.2024 12:06:58:386,339,1,2,0,128512.000000,100645.000000,28872.000000,12.000000,-456.000000,891.000000
12.10.2024 12:06:58:390,340,1,2,0,128510.000000,100640.000000,28877.000000,9.000000,-460.000000,893.000000
12.10.2024 12:06:58:393,341,1,2,0,128512.000000,100645.000000,28879.000000,10.000000,-462.000000,894.000000
12.10.2024 12:06:58:396,342,1,2,0,128516.000000,100641.000000,28880.000000,9.000000,-460.000000,892.000000
12.10.2024 12:06:58:399,343,1,2,0,128516.000000,100643.000000,28879.000000,9.000000,-459.000000,892.000000
12.10.2024 12:06:58:403,344,1,2,0,128511.000000,100638.000000,28885.000000,14.000000,-465.000000,893.000000
12.10.2024 12:06:58:406,345,1,2,0,128510.000000,100646.000000,28892.000000,9.000000,-464.000000,890.000000
12.10.2024 12:06:58:409,346,1,2,0,128511.000000,100642.000000,28888.000000,9.000000,-470.000000,894.000000
12.10.2024 12:06:58:412,347,1,2,0,128511.000000,100644.000000,28895.000000,12.000000,-465.000000,889.000000
12.10.2024 12:06:58:416,348,1,2,0,128507.000000,100646.000000,28893.000000,6.000000,-467.000000,890.000000
12.10.2024 12:06:58:419,349,1,2,0,128517.000000,100648.000000,28900.000000,12.000000,-466.000000,894.000000
12.10.2024 12:06:58:422,350,1,2,0,128514.000000,100649.000000,28903.000000,11.000000,-466.000000,888.000000
12.10.2024 12:06:58:425,351,1,2,0,128514.000000,100653.000000,28909.000000,15.000000,-464.000000,889.000000
12.10.2024 12:06:58:429,352,1,2,0,128520.000000,100656.000000,28914.000000,10.000000,-464.000000,893.000000
12.10.2024 12:06:58:432,353,1,2,0,128523.000000,100659.000000,28915.000000,11.000000,-474.000000,888.000000
12.10.2024 12:06:58:435,354,1,2,0,128518.000000,100660.000000,28918.000000,14.000000,-472.000000,890.000000
12.10.2024 12:06:58:438,355,1,2,0,128520.000000,100662.000000,28918.000000,15.000000,-470.000000,885.000000
12.10.2024 12:06:58:442,356,1,2,0,128519.000000,100662.000000,28923.000000,16.000000,-462.000000,887.000000
12.10.2024 12:06:58:445,357,1,2,0,128520.000000,100661.000000,28912.000000,12.000000,-463.000000,889.000000
12.10.2024 12:06:58:448,358,1,2,0,128520.000000,100668.000000,28923.000000,12.000000,-463.000000,889.000000
12.10.2024 12:06:58:451,359,1,2,0,128519.000000,100670.000000,28923.000000,14.000000,-463.000000,891.000000
12.10.2024 12:06:58:455,360,1,2,0,128528.000000,100672.000000,28922.000000,15.000000,-461.000000,892.000000
12.10.2024 12:06:58:458,361,1,2,0,128522.000000,100673.000000,28925.000000,11.000000,-460.000000,895.000000
12.10.2024 12:06:58:461,362,1,2,0,128524.000000,100676.000000,28920.000000,17.000000,-458.000000,891.000000
12.10.2024 12:06:58:464,363,1,2,0,128525.000000,100675.000000,28922.000000,16.000000,-458.000000,890.000000
12.10.2024 12:06:58:468,364,1,2,0,128524.000000,100682.000000,28919.000000,13.000000,-461.000000,893.000000
12.10.2024 12:06:58:471,365,1,2,0,128521.000000,100681.000000,28922.000000,15.000000,-460.000000,889.000000
12.10.2024 12:06:58:474,366,1,2,0,128525.000000,100684.000000,28915.000000,14.000000,-462.000000,891.000000
12.10.2024 12:06:58:477,367,1,2,0,128523.000000,100685.000000,28915.000000,14.000000,-461.000000,893.000000
12.10.2024 12:06:58:481,368,1,2,0,128514.000000,100686.000000,28912.000000,14.000000,-459.000000,893.000000
12.10.2024 12:06:58:484,369,1,2,0,128523.000000,100684.000000,28917.000000,14.000000,-456.000000,894.000000
12.10.2024 12:06:58:487,370,1,2,0,128517.000000,100681.000000,28914.000000,13.000000,-461.000000,894.000000
12.10.2024 12:06:58:490,371,1,2,0,128518.000000,100683.000000,28910.000000,17.000000,-460.000000,893.000000
12.10.2024 12:06:58:493,372,1,2,0,128509.000000,100675.000000,28910.000000,12.000000,-464.000000,898.000000
12.10.2024 12:06:58:497,373,1,2,0,128503.000000,100677.000000,28906.000000,14.000000,-469.000000,889.000000
12.10.2024 12:06:58:500,374,1,2,0,128503.000000,100679.000000,28899.000000,12.000000,-464.000000,888.000000
12.10.2024 12:06:58:503,375,1,2,0,128494.000000,100672.000000,28904.000000,14.000000,-462.000000,887.000000
12.10.2024 12:06:58:506,376,1,2,0,128496.000000,100672.000000,28903.000000,13.000000,-462.000000,891.000000
12.10.2024 12:06:58:510,377,1,2,0,128495.000000,100670.000000,28899.000000,16.000000,-460.000000,891.000000
12.10.2024 12:06:58:513,378,1,2,0,128491.000000,100668.000000,28898.000000,14.000000,-465.000000,894.000000
12.10.2024 12:06:58:516,379,1,2,0,128488.000000,100667.000000,28891.000000,14.000000,-460.000000,891.000000
12.10.2024 12:06:58:519,380,1,2,0,128485.000000,100661.000000,28890.000000,19.000000,-463.000000,890.000000
12.10.2024 12:06:58:523,381,1,2,0,128481.000000,100655.000000,28890.000000,15.000000,-465.000000,889.000000
12.10.2024 12:06:58:526,382,1,2,0,128474.000000,100654.000000,28885.000000,11.000000,-474.000000,892.000000
12.10.2024 12:06:58:529,383,1,2,0,128474.000000,100654.000000,28881.000000,14.000000,-470.000000,889.000000
12.10.2024 12:06:58:532,384,1,2,0,128467.000000,100651.000000,28883.000000,17.000000,-472.000000,887.000000
12.10.2024 12:06:58:536,385,1,2,0,128468.000000,100650.000000,28881.000000,14.000000,-466.000000,885.000000
12.10.2024 12:06:58:539,386,1,2,0,128466.000000,100646.000000,28879.000000,13.000000,-466.000000,890.000000
12.10.2024 12:06:58:542,387,1,2,0,128473.000000,100648.000000,28880.000000,10.000000,-459.000000,888.000000
12.10.2024 12:06:58:545,388,1,2,0,128471.000000,100648.000000,28882.000000,10.000000,-459.000000,889.000000
12.10.2024 12:06:58:549,389,1,2,0,128466.000000,100649.000000,28880.000000,11.000000,-463.000000,889.000000
12.10.2024 12:06:58:552,390,1,2,0,128474.000000,100650.000000,28875.000000,9.000000,-463.000000,890.000000
12.10.2024 12:06:58:555,391,1,2,0,128468.000000,100646.000000,28879.000000,12.000000,-466.000000,890.000000
12.10.2024 12:06:58:558,392,1,2,0,128468.000000,100645.000000,28871.000000,12.000000,-465.000000,895.000000
12.10.2024 12:06:58:562,393,1,2,0,128465.000000,100646.000000,28873.000000,12.000000,-463.000000,894.000000
12.10.2024 12:06:58:565,394,1,2,0,128468.000000,100649.000000,28874.000000,13.000000,-468.000000,890.000000
12.10.2024 12:06:58:568,395,1,2,0,128468.000000,100647.000000,28867.000000,12.000000,-463.000000,889.000000
12.10.2024 12:06:58:571,396,1,2,0,128471.000000,100647.000000,28867.000000,16.000000,-468.000000,889.000000
12.10.2024 12:06:58:575,397,1,2,0,128468.000000,100647.000000,28870.000000,12.000000,-469.000000,887.000000
12.10.2024 12:06:58:578,398,1,2,0,128470.000000,100650.000000,28867.000000,14.000000,-468.000000,886.000000
12.10.2024 12:06:58:581,399,1,2,0,128471.000000,100646.000000,28873.000000,14.000000,-461.000000,887.000000
12.10.2024 12:06:58:584,400,1,2,0,128469.000000,100651.000000,28866.000000,10.000000,-460.000000,889.000000
12.10.2024 12:06:58:588,401,1,2,0,128477.000000,100654.000000,28869.000000,9.000000,-459.000000,888.000000
12.10.2024 12:06:58:591,402,1,2,0,128479.000000,100656.000000,28870.000000,11.000000,-461.000000,891.000000
12.10.2024 12:06:58:594,403,1,2,0,128484.000000,100655.000000,28870.000000,16.000000,-459.000000,893.000000
12.10.2024 12:06:58:597,404,1,2,0,128478.000000,100658.000000,28875.000000,16.000000,-459.000000,893.000000
12.10.2024 12:06:58:601,405,1,2,0,128491.000000,100655.000000,28868.000000,14.000000,-460.000000,892.000000
12.10.2024 12:06:58:604,406,1,2,0,128491.000000,100658.000000,28874.000000,11.000000,-466.000000,893.000000
12.10.2024 12:06:58:607,407,1,2,0,128489.000000,100652.000000,28879.000000,14.000000,-460.000000,894.000000
12.10.2024 12:06:58:610,408,1,2,0,128490.000000,100654.000000,28876.000000,9.000000,-461.000000,890.000000
12.10.2024 12:06:58:614,409,1,2,0,128491.000000,100659.000000,28869.000000,19.000000,-458.000000,889.000000
12.10.2024 12:06:58:617,410,1,2,0,128492.000000,100659.000000,28872.000000,12.000000,-460.000000,891.000000
12.10.2024 12:06:58:620,411,1,2,0,128493.000000,100654.000000,28881.000000,13.000000,-462.000000,894.000000
12.10.2024 12:06:58:623,412,1,2,0,128491.000000,100657.000000,28872.000000,14.000000,-458.000000,891.000000
12.10.2024 12:06:58:627,413,1,2,0,128492.000000,100655.000000,28875.000000,12.000000,-458.000000,895.000000
12.10.2024 12:06:58:630,414,1,2,0,128492.000000,100652.000000,28883.000000,13.000000,-461.000000,886.000000
12.10.2024 12:06:58:633,415,1,2,0,128491.000000,100650.000000,28876.000000,16.000000,-466.000000,894.000000
12.10.2024 12:06:58:636,416,1,2,0,128492.000000,100648.000000,28878.000000,19.000000,-463.000000,888.000000
12.10.2024 12:06:58:639,417,1,2,0,128485.000000,100646.000000,28879.000000,15.000000,-462.000000,891.000000
12.10.2024 12:06:58:643,418,1,2,0,128483.000000,100650.000000,28880.000000,15.000000,-461.000000,893.000000
12.10.2024 12:06:58:646,419,1,2,0,128484.000000,100644.000000,28879.000000,8.000000,-464.000000,891.000000
12.10.2024 12:06:58:649,420,1,2,0,128487.000000,100644.000000,28883.000000,14.000000,-464.000000,888.000000
12.10.2024 12:06:58:652,421,1,2,0,128479.000000,100641.000000,28883.000000,16.000000,-459.000000,889.000000
12.10.2024 12:06:58:656,422,1,2,0,128481.000000,100644.000000,28883.000000,18.000000,-464.000000,890.000000
12.10.2024 12:06:58:659,423,1,2,0,128484.000000,100642.000000,28888.000000,6.000000,-464.000000,893.000000
12.10.2024 12:06:58:662,424,1,2,0,128483.000000,100644.000000,28888.000000,11.000000,-463.000000,886.000000
12.10.2024 12:06:58:665,425,1,2,0,128480.000000,100648.000000,28889.000000,15.000000,-464.000000,892.000000
12.10.2024 12:06:58:669,426,1,2,0,128477.000000,100643.000000,28897.000000,19.000000,-463.000000,890.000000
12.10.2024 12:06:58:672,427,1,2,0,128473.000000,100642.000000,28895.000000,15.000000,-464.000000,889.000000
12.10.2024 12:06:58:675,428,1,2,0,128481.000000,100641.000000,28902.000000,13.000000,-464.000000,891.000000
12.10.2024 12:06:58:678,429,1,2,0,128475.000000,100639.000000,28896.000000,16.000000,-469.000000,892.000000
12.10.2024 12:06:58:682,430,1,2,0,128479.000000,100642.000000,28899.000000,6.000000,-466.000000,892.000000
12.10.2024 12:06:58:685,431,1,2,0,128475.000000,100641.000000,28900.000000,12.000000,-466.000000,889.000000
12.10.2024 12:06:58:688,432,1,2,0,128474.000000,100646.000000,28904.000000,13.000000,-461.000000,889.000000
12.10.2024 12:06:58:691,433,1,2,0,128476.000000,100646.000000,28904.000000,13.000000,-462.000000,890.000000
12.10.2024 12:06:58:695,434,1,2,0,128478.000000,100650.000000,28907.000000,10.000000,-463.000000,889.000000
12.10.2024 12:06:58:698,435,1,2,0,128477.000000,100648.000000,28905.000000,12.000000,-460.000000,890.000000
12.10.2024 12:06:58:701,436,1,2,0,128479.000000,100652.000000,28911.000000,18.000000,-464.000000,895.000000
12.10.2024 12:06:58:704,437,1,2,0,128474.000000,100650.000000,28916.000000,19.000000,-469.000000,893.000000
12.10.2024 12:06:58:708,438,1,2,0,128479.000000,100650.000000,28914.000000,18.000000,-475.000000,898.000000
12.10.2024 12:06:58:711,439,1,2,0,128470.000000,100648.000000,28913.000000,11.000000,-471.000000,892.000000
12.10.2024 12:06:58:714,440,1,2,0,128466.000000,100646.000000,28912.000000,14.000000,-468.000000,886.000000
12.10.2024 12:06:58:717,441,1,2,0,128470.000000,100646.000000,28912.000000,16.000000,-470.000000,887.000000
12.10.2024 12:06:58:721,442,1,2,0,128469.000000,100645.000000,28915.000000,16.000000,-467.000000,885.000000
12.10.2024 12:06:58:724,443,1,2,0,128470.000000,100647.000000,28920.000000,16.000000,-464.000000,888.000000
12.10.2024 12:06:58:727,444,1,2,0,128468.000000,100644.000000,28919.000000,14.000000,-464.000000,889.000000
12.10.2024 12:06:58:730,445,1,2,0,128468.000000,100649.000000,28917.000000,13.000000,-463.000000,891.000000
12.10.2024 12:06:58:734,446,1,2,0,128468.000000,100645.000000,28917.000000,14.000000,-464.000000,889.000000
12.10.2024 12:06:58:737,447,1,2,0,128473.000000,100646.000000,28921.000000,16.000000,-467.000000,886.000000
12.10.2024 12:06:58:740,448,1,2,0,128466.000000,100648.000000,28920.000000,16.000000,-467.000000,888.000000
12.10.2024 12:06:58:743,449,1,2,0,128471.000000,100646.000000,28918.000000,20.000000,-463.000000,888.000000
12.10.2024 12:06:58:747,450,1,2,0,128467.000000,100648.000000,28921.000000,20.000000,-463.000000,888.000000
12.10.2024 12:06:58:750,451,1,2,0,128468.000000,100645.000000,28924.000000,17.000000,-459.000000,888.000000
12.10.2024 12:06:58:753,452,1,2,0,128470.000000,100646.000000,28923.000000,13.000000,-457.000000,892.000000
12.10.2024 12:06:58:756,453,1,2,0,128467.000000,100647.000000,28928.000000,15.000000,-456.000000,894.000000
12.10.2024 12:06:58:760,454,1,2,0,128467.000000,100649.000000,28926.000000,15.000000,-456.000000,894.000000
12.10.2024 12:06:58:763,455,1,2,0,128471.000000,100653.000000,28927.000000,12.000000,-456.000000,894.000000
12.10.2024 12:06:58:766,456,1,2,0,128472.000000,100651.000000,28922.000000,13.000000,-465.000000,896.000000
12.10.2024 12:06:58:769,457,1,2,0,128463.000000,100647.000000,28925.000000,13.000000,-464.000000,894.000000
12.10.2024 12:06:58:773,458,1,2,0,128465.000000,100645.000000,28924.000000,15.000000,-465.000000,890.000000
12.10.2024 12:06:58:776,459,1,2,0,128464.000000,100645.000000,28927.000000,16.000000,-464.000000,891.000000
12.10.2024 12:06:58:779,460,1,2,0,128463.000000,100645.000000,28927.000000,15.000000,-462.000000,890.000000
12.10.2024 12:06:58:782,461,1,2,0,128460.000000,100644.000000,28930.000000,14.000000,-464.000000,893.000000
12.10.2024 12:06:58:786,462,1,2,0,128453.000000,100642.000000,28924.000000,13.000000,-461.000000,894.000000
12.10.2024 12:06:58:789,463,1,2,0,128454.000000,100637.000000,28923.000000,15.000000,-467.000000,888.000000
12.10.2024 12:06:58:792,464,1,2,0,128455.000000,100638.000000,28923.000000,16.000000,-469.000000,890.000000
12.10.2024 12:06:58:795,465,1,2,0,128453.000000,100635.000000,28922.000000,14.000000,-468.000000,889.000000
12.10.2024 12:06:58:798,466,1,2,0,128451.000000,100633.000000,28927.000000,14.000000,-471.000000,893.000000
12.10.2024 12:06:58:802,467,1,2,0,128443.000000,100634.000000,28933.000000,16.000000,-469.000000,890.000000
12.10.2024 12:06:58:805,468,1,2,0,128445.000000,100633.000000,28922.000000,10.000000,-464.000000,888.000000
12.10.2024 12:06:58:808,469,1,2,0,128446.000000,100635.000000,28925.000000,17.000000,-459.000000,886.000000
12.10.2024 12:06:58:811,470,1,2,0,128449.000000,100631.000000,28922.000000,12.000000,-463.000000,892.000000
12.10.2024 12:06:58:815,471,1,2,0,128444.000000,100635.000000,28923.000000,17.000000,-460.000000,894.000000
12.10.2024 12:06:58:818,472,1,2,0,128448.000000,100631.000000,28931.000000,16.000000,-462.000000,892.000000
12.10.2024 12:06:58:821,473,1,2,0,128444.000000,100634.000000,28922.000000,15.000000,-464.000000,893.000000
12.10.2024 12:06:58:824,474,1,2,0,128447.000000,100632.000000,28925.000000,16.000000,-467.000000,894.000000
12.10.2024 12:06:58:828,475,1,2,0,128444.000000,100633.000000,28927.000000,16.000000,-465.000000,891.000000
12.10.2024 12:06:58:831,476,1,2,0,128444.000000,100633.000000,28922.000000,14.000000,-464.000000,890.000000
12.10.2024 12:06:58:834,477,1,2,0,128441.000000,100628.000000,28924.000000,16.000000,-466.000000,891.000000
12.10.2024 12:06:58:837,478,1,2,0,128443.000000,100624.000000,28926.000000,15.000000,-464.000000,890.000000
12.10.2024 12:06:58:841,479,1,2,0,128440.000000,100624.000000,28923.000000,15.000000,-463.000000,888.000000
12.10.2024 12:06:58:844,480,1,2,0,128441.000000,100629.000000,28924.000000,13.000000,-465.000000,892.000000
12.10.2024 12:06:58:847,481,1,2,0,128431.000000,100627.000000,28923.000000,18.000000,-467.000000,889.000000
12.10.2024 12:06:58:850,482,1,2,0,128429.000000,100621.000000,28924.000000,15.000000,-467.000000,883.000000
12.10.2024 12:06:58:854,483,1,2,0,128433.000000,100623.000000,28924.000000,13.000000,-466.000000,889.000000
12.10.2024 12:06:58:857,484,1,2,0,128432.000000,100624.000000,28925.000000,13.000000,-466.000000,889.000000
12.10.2024 12:06:58:860,485,1,2,0,128435.000000,100620.000000,28925.000000,8.000000,-460.000000,890.000000
12.10.2024 12:06:58:863,486,1,2,0,128439.000000,100623.000000,28921.000000,9.000000,-463.000000,890.000000
12.10.2024 12:06:58:867,487,1,2,0,128439.000000,100623.000000,28922.000000,14.000000,-468.000000,890.000000
12.10.2024 12:06:58:870,488,1,2,0,128433.000000,100620.000000,28924.000000,16.000000,-471.000000,892.000000
12.10.2024 12:06:58:873,489,1,2,0,128436.000000,100618.000000,28922.000000,14.000000,-469.000000,894.000000
12.10.2024 12:06:58:876,490,1,2,0,128441.000000,100620.000000,28925.000000,15.000000,-468.000000,889.000000
12.10.2024 12:06:58:880,491,1,2,0,128441.000000,100620.000000,28929.000000,18.000000,-468.000000,887.000000
12.10.2024 12:06:58:883,492,1,2,0,128433.000000,100621.000000,28923.000000,16.000000,-467.000000,890.000000
12.10.2024 12:06:58:886,493,1,2,0,128436.000000,100618.000000,28926.000000,16.000000,-470.000000,889.000000
12.10.2024 12:06:58:889,494,1,2,0,128439.000000,100616.000000,28930.000000,13.000000,-465.000000,889.000000
12.10.2024 12:06:58:893,495,1,2,0,128442.000000,100616.000000,28928.000000,14.000000,-460.000000,893.000000
12.10.2024 12:06:58:896,496,1,2,0,128438.000000,100617.000000,28925.000000,12.000000,-463.000000,889.000000
12.10.2024 12:06:58:899,497,1,2,0,128442.000000,100617.000000,28930.000000,17.000000,-455.000000,888.000000
12.10.2024 12:06:58:902,498,1,2,0,128438.000000,100619.000000,28931.000000,16.000000,-460.000000,889.000000
12.10.2024 12:06:58:906,499,1,2,0,128448.000000,100618.000000,28926.000000,16.000000,-463.000000,890.000000
12.10.2024 12:06:58:909,500,1,2,0,128445.000000,100616.000000,28933.000000,15.000000,-464.000000,893.000000
12.10.2024 12:06:58:912,501,1,2,0,128436.000000,100620.000000,28929.000000,9.000000,-458.000000,890.000000
12.10.2024 12:06:58:915,502,1,2,0,128442.000000,100619.000000,28931.000000,16.000000,-459.000000,893.000000
12.10.2024 12:06:58:919,503,1,2,0,128447.000000,100620.000000,28929.000000,11.000000,-457.000000,894.000000
12.10.2024 12:06:58:922,504,1,2,0,128443.000000,100617.000000,28932.000000,11.000000,-459.000000,891.000000
12.10.2024 12:06:58:925,505,1,2,0,128443.000000,100613.000000,28932.000000,19.000000,-466.000000,888.000000
12.10.2024 12:06:58:928,506,1,2,0,128437.000000,100612.000000,28934.000000,13.000000,-461.000000,885.000000
12.10.2024 12:06:58:932,507,1,2,0,128441.000000,100615.000000,28934.000000,15.000000,-458.000000,890.000000
12.10.2024 12:06:58:935,508,1,2,0,128446.000000,100616.000000,28940.000000,15.000000,-460.000000,889.000000
12.10.2024 12:06:58:938,509,1,2,0,128443.000000,100619.000000,28938.000000,13.000000,-465.000000,891.000000
12.10.2024 12:06:58:941,510,1,2,0,128446.000000,100615.000000,28941.000000,13.000000,-464.000000,888.000000
12.10.2024 12:06:58:944,511,1,2,0,128443.000000,100613.000000,28944.000000,10.000000,-468.000000,891.000000
12.10.2024 12:06:58:948,512,1,2,0,128436.000000,100613.000000,28940.000000,11.000000,-473.000000,890.000000
12.10.2024 12:06:58:951,513,1,2,0,128441.000000,100614.000000,28939.000000,15.000000,-471.000000,890.000000
12.10.2024 12:06:58:954,514,1,2,0,128437.000000,100616.000000,28940.000000,15.000000,-471.000000,890.000000
12.10.2024 12:06:58:957,515,1,2,0,128440.000000,100612.000000,28943.000000,10.000000,-471.000000,887.000000
12.10.2024 12:06:58:961,516,1,2,0,128442.000000,100611.000000,28943.000000,12.000000,-469.000000,886.000000
12.10.2024 12:06:58:964,517,1,2,0,128438.000000,100612.000000,28947.000000,13.000000,-467.000000,886.000000
12.10.2024 12:06:58:967,518,1,2,0,128438.000000,100608.000000,28949.000000,13.000000,-466.000000,886.000000
12.10.2024 12:06:58:970,519,1,2,0,128440.000000,100611.000000,28948.000000,11.000000,-468.000000,884.000000
12.10.2024 12:06:58:974,520,1,2,0,128436.000000,100605.000000,28944.000000,11.000000,-466.000000,889.000000
12.10.2024 12:06:58:977,521,1,2,0,128435.000000,100608.000000,28952.000000,11.000000,-462.000000,892.000000
12.10.2024 12:06:58:980,522,1,2,0,128436.000000,100608.000000,28953.000000,14.000000,-457.000000,891.000000
12.10.2024 12:06:58:983,523,1,2,0,128442.000000,100609.000000,28950.000000,15.000000,-467.000000,894.000000
12.10.2024 12:06:58:987,524,1,2,0,128437.000000,100611.000000,28952.000000,14.000000,-468.000000,893.000000
12.10.2024 12:06:58:990,525,1,2,0,128438.000000,100607.000000,28951.000000,11.000000,-467.000000,893.000000
12.10.2024 12:06:58:993,526,1,2,0,128435.000000,100606.000000,28951.000000,13.000000,-467.000000,890.000000
12.10.2024 12:06:58:996,527,1,2,0,128438.000000,100606.000000,28950.000000,13.000000,-467.000000,893.000000
12.10.2024 12:06:59:0,528,1,2,0,128439.000000,100607.000000,28952.000000,13.000000,-467.000000,888.000000
12.10.2024 12:06:59:3,529,1,2,0,128441.000000,100603.000000,28956.000000,10.000000,-459.000000,888.000000
12.10.2024 12:06:59:6,530,1,2,0,128436.000000,100605.000000,28956.000000,13.000000,-467.000000,888.000000
12.10.2024 12:06:59:9,531,1,2,0,128441.000000,100603.000000,28956.000000,15.000000,-461.000000,892.000000
12.10.2024 12:06:59:13,532,1,2,0,128437.000000,100603.000000,28964.000000,8.000000,-458.000000,890.000000
12.10.2024 12:06:59:16,533,1,2,0,128443.000000,100606.000000,28960.000000,11.000000,-466.000000,889.000000
12.10.2024 12:06:59:19,534,1,2,0,128442.000000,100602.000000,28959.000000,10.000000,-468.000000,894.000000
12.10.2024 12:06:59:22,535,1,2,0,128437.000000,100605.000000,28961.000000,16.000000,-467.000000,892.000000
12.10.2024 12:06:59:26,536,1,2,0,128439.000000,100606.000000,28959.000000,15.000000,-471.000000,889.000000
12.10.2024 12:06:59:29,537,1,2,0,128440.000000,100606.000000,28962.000000,14.000000,-473.000000,891.000000
12.10.2024 12:06:59:32,538,1,2,0,128439.000000,100609.000000,28965.000000,15.000000,-474.000000,886.000000
12.10.2024 12:06:59:35,539,1,2,0,128444.000000,100612.000000,28966.000000,14.000000,-466.000000,886.000000
12.10.2024 12:06:59:39,540,1,2,0,128450.000000,100602.000000,28966.000000,14.000000,-468.000000,888.000000
12.10.2024 12:06:59:42,541,1,2,0,128452.000000,100609.000000,28969.000000,18.000000,-466.000000,890.000000
12.10.2024 12:06:59:45,542,1,2,0,128447.000000,100605.000000,28973.000000,17.000000,-464.000000,890.000000
12.10.2024 12:06:59:48,543,1,2,0,128453.000000,100606.000000,28974.000000,16.000000,-469.000000,895.000000
12.10.2024 12:06:59:52,544,1,2,0,128460.000000,100613.000000,28976.000000,16.000000,-469.000000,895.000000
12.10.2024 12:06:59:55,545,1,2,0,128452.000000,100611.000000,28974.000000,13.000000,-463.000000,886.000000
12.10.2024 12:06:59:58,546,1,2,0,128457.000000,100616.000000,28975.000000,15.000000,-460.000000,889.000000
12.10.2024 12:06:59:61,547,1,2,0,128455.000000,100616.000000,28981.000000,14.000000,-455.000000,889.000000
12.10.2024 12:06:59:65,548,1,2,0,128457.000000,100616.000000,28982.000000,15.000000,-460.000000,889.000000
12.10.2024 12:06:59:68,549,1,2,0,128464.000000,100617.000000,28981.000000,19.000000,-461.000000,892.000000
12.10.2024 12:06:59:71,550,1,2,0,128461.000000,100618.000000,28979.000000,9.000000,-457.000000,893.000000
12.10.2024 12:06:59:74,551,1,2,0,128465.000000,100614.000000,28982.000000,13.000000,-454.000000,888.000000
12.10.2024 12:06:59:78,552,1,2,0,128469.000000,100619.000000,28988.000000,17.000000,-460.000000,895.000000
12.10.2024 12:06:59:81,553,1,2,0,128464.000000,100622.000000,28989.000000,12.000000,-465.000000,893.000000
12.10.2024 12:06:59:84,554,1,2,0,128465.000000,100623.000000,29000.000000,12.000000,-467.000000,891.000000
12.10.2024 12:06:59:87,555,1,2,0,128463.000000,100618.000000,28991.000000,16.000000,-463.000000,889.000000
12.10.2024 12:06:59:90,556,1,2,0,128463.000000,100617.000000,28989.000000,18.000000,-466.000000,893.000000
12.10.2024 12:06:59:94,557,1,2,0,128463.000000,100616.000000,29003.000000,16.000000,-467.000000,885.000000
12.10.2024 12:06:59:97,558,1,2,0,128459.000000,100615.000000,28994.000000,14.000000,-472.000000,890.000000
12.10.2024 12:06:59:100,559,1,2,0,128462.000000,100611.000000,28993.000000,15.000000,-471.000000,890.000000
12.10.2024 12:06:59:103,560,1,2,0,128459.000000,100614.000000,29000.000000,14.000000,-472.000000,890.000000
12.10.2024 12:06:59:107,561,1,2,0,128455.000000,100614.000000,29000.000000,15.000000,-474.000000,889.000000
12.10.2024 12:06:59:110,562,1,2,0,128455.000000,100610.000000,29002.000000,16.000000,-473.000000,891.000000
12.10.2024 12:06:59:113,563,1,2,0,128446.000000,100612.000000,29003.000000,13.000000,-469.000000,891.000000
12.10.2024 12:06:59:116,564,1,2,0,128459.000000,100612.000000,29000.000000,17.000000,-471.000000,888.000000
12.10.2024 12:06:59:120,565,1,2,0,128454.000000,100607.000000,29000.000000,16.000000,-470.000000,886.000000
12.10.2024 12:06:59:123,566,1,2,0,128446.000000,100611.000000,29002.000000,17.000000,-467.000000,889.000000
12.10.2024 12:06:59:126,567,1,2,0,128451.000000,100609.000000,29003.000000,17.000000,-466.000000,888.000000
12.10.2024 12:06:59:129,568,1,2,0,128457.000000,100610.000000,29008.000000,17.000000,-460.000000,886.000000
12.10.2024 12:06:59:133,569,1,2,0,128458.000000,100613.000000,29010.000000,13.000000,-465.000000,885.000000
12.10.2024 12:06:59:136,570,1,2,0,128458.000000,100610.000000,29008.000000,14.000000,-457.000000,892.000000
12.10.2024 12:06:59:139,571,1,2,0,128457.000000,100613.000000,29016.000000,15.000000,-462.000000,896.000000
12.10.2024 12:06:59:142,572,1,2,0,128457.000000,100613.000000,29010.000000,14.000000,-464.000000,887.000000
12.10.2024 12:06:59:146,573,1,2,0,128462.000000,100611.000000,29010.000000,11.000000,-464.000000,888.000000
12.10.2024 12:06:59:149,574,1,2,0,128458.000000,100614.000000,29015.000000,11.000000,-464.000000,888.000000
12.10.2024 12:06:59:152,575,1,2,0,128460.000000,100612.000000,29018.000000,14.000000,-462.000000,886.000000
12.10.2024 12:06:59:155,576,1,2,0,128456.000000,100611.000000,29016.000000,16.000000,-463.000000,889.000000
12.10.2024 12:06:59:159,577,1,2,0,128453.000000,100610.000000,29017.000000,11.000000,-459.000000,890.000000
12.10.2024 12:06:59:162,578,1,2,0,128461.000000,100605.000000,29018.000000,10.000000,-461.000000,889.000000
12.10.2024 12:06:59:165,579,1,2,0,128451.000000,100612.000000,29019.000000,11.000000,-461.000000,890.000000
12.10.2024 12:06:59:168,580,1,2,0,128458.000000,100614.000000,29023.000000,11.000000,-468.000000,891.000000
12.10.2024 12:06:59:172,581,1,2,0,128453.000000,100613.000000,29027.000000,15.000000,-473.000000,886.000000
12.10.2024 12:06:59:175,582,1,2,0,128453.000000,100614.000000,29032.000000,19.000000,-471.000000,892.000000
12.10.2024 12:06:59:178,583,1,2,0,128460.000000,100617.000000,29031.000000,17.000000,-473.000000,893.000000
12.10.2024 12:06:59:181,584,1,2,0,128455.000000,100621.000000,29037.000000,17.000000,-472.000000,890.000000
12.10.2024 12:06:59:185,585,1,2,0,128458.000000,100620.000000,29039.000000,13.000000,-472.000000,887.000000
12.10.2024 12:06:59:188,586,1,2,0,128463.000000,100627.000000,29049.000000,12.000000,-474.000000,894.000000
12.10.2024 12:06:59:191,587,1,2,0,128461.000000,100627.000000,29045.000000,12.000000,-473.000000,890.000000
12.10.2024 12:06:59:194,588,1,2,0,128457.000000,100626.000000,29053.000000,13.000000,-472.000000,889.000000
12.10.2024 12:06:59:198,589,1,2,0,128461.000000,100630.000000,29050.000000,13.000000,-473.000000,888.000000
12.10.2024 12:06:59:201,590,1,2,0,128463.000000,100635.000000,29057.000000,13.000000,-472.000000,889.000000
12.10.2024 12:06:59:204,591,1,2,0,128458.000000,100636.000000,29054.000000,14.000000,-470.000000,883.000000
12.10.2024 12:06:59:207,592,1,2,0,128459.000000,100634.000000,29055.000000,13.000000,-474.000000,888.000000
12.10.2024 12:06:59:211,593,1,2,0,128462.000000,100638.000000,29056.000000,17.000000,-469.000000,887.000000
12.10.2024 12:06:59:214,594,1,2,0,128466.000000,100636.000000,29053.000000,13.000000,-474.000000,888.000000
12.10.2024 12:06:59:217,595,1,2,0,128458.000000,100636.000000,29055.000000,16.000000,-470.000000,887.000000
12.10.2024 12:06:59:220,596,1,2,0,128463.000000,100639.000000,29058.000000,18.000000,-465.000000,893.000000
12.10.2024 12:06:59:224,597,1,2,0,128462.000000,100641.000000,29055.000000,19.000000,-464.000000,889.000000
12.10.2024 12:06:59:227,598,1,2,0,128461.000000,100644.000000,29050.000000,19.000000,-464.000000,889.000000
12.10.2024 12:06:59:230,599,1,2,0,128463.000000,100644.000000,29052.000000,15.000000,-458.000000,886.000000
12.10.2024 12:06:59:233,600,1,2,0,128461.000000,100644.000000,29049.000000,17.000000,-460.000000,889.000000
12.10.2024 12:06:59:237,601,1,2,0,128464.000000,100647.000000,29057.000000,17.000000,-453.000000,889.000000
12.10.2024 12:06:59:240,602,1,2,0,128463.000000,100647.000000,29050.000000,19.000000,-455.000000,889.000000
12.10.2024 12:06:59:243,603,1,2,0,128463.000000,100650.000000,29054.000000,14.000000,-453.000000,891.000000
12.10.2024 12:06:59:246,604,1,2,0,128470.000000,100653.000000,29050.000000,14.000000,-453.000000,891.000000
12.10.2024 12:06:59:249,605,1,2,0,128468.000000,100652.000000,29051.000000,14.000000,-460.000000,894.000000
12.10.2024 12:06:59:253,606,1,2,0,128460.000000,100646.000000,29049.000000,11.000000,-462.000000,893.000000
12.10.2024 12:06:59:256,607,1,2,0,128456.000000,100644.000000,29046.000000,16.000000,-465.000000,888.000000
12.10.2024 12:06:59:259,608,1,2,0,128454.000000,100646.000000,29042.000000,17.000000,-464.000000,893.000000
12.10.2024 12:06:59:262,609,1,2,0,128447.000000,100645.000000,29044.000000,19.000000,-473.000000,888.000000
12.10.2024 12:06:59:266,610,1,2,0,128440.000000,100639.000000,29037.000000,17.000000,-473.000000,889.000000
12.10.2024 12:06:59:269,611,1,2,0,128439.000000,100638.000000,29041.000000,15.000000,-474.000000,891.000000
12.10.2024 12:06:59:272,612,1,2,0,128436.000000,100633.000000,29042.000000,16.000000,-469.000000,887.000000
12.10.2024 12:06:59:275,613,1,2,0,128433.000000,100633.000000,29035.000000,19.000000,-471.000000,886.000000
12.10.2024 12:06:59:279,614,1,2,0,128429.000000,100630.000000,29031.000000,13.000000,-474.000000,885.000000
12.10.2024 12:06:59:282,615,1,2,0,128423.000000,100628.000000,29029.000000,20.000000,-473.000000,886.000000
12.10.2024 12:06:59:285,616,1,2,0,128427.000000,100625.000000,29031.000000,15.000000,-470.000000,887.000000
12.10.2024 12:06:59:288,617,1,2,0,128427.000000,100628.000000,29025.000000,17.000000,-469.000000,889.000000
12.10.2024 12:06:59:292,618,1,2,0,128426.000000,100619.000000,29026.000000,22.000000,-463.000000,890.000000
12.10.2024 12:06:59:295,619,1,2,0,128426.000000,100625.000000,29026.000000,16.000000,-471.000000,887.000000
12.10.2024 12:06:59:298,620,1,2,0,128431.000000,100625.000000,29018.000000,22.000000,-463.000000,890.000000
12.10.2024 12:06:59:301,621,1,2,0,128424.000000,100628.000000,29018.000000,16.000000,-468.000000,885.000000
12.10.2024 12:06:59:305,622,1,2,0,128432.000000,100621.000000,29024.000000,18.000000,-467.000000,895.000000
12.10.2024 12:06:59:308,623,1,2,0,128428.000000,100627.000000,29024.000000,13.000000,-458.000000,893.000000
12.10.2024 12:06:59:311,624,1,2,0,128434.000000,100628.000000,29022.000000,12.000000,-462.000000,892.000000
12.10.2024 12:06:59:314,625,1,2,0,128432.000000,100629.000000,29015.000000,16.000000,-464.000000,890.000000
12.10.2024 12:06:59:318,626,1,2,0,128430.000000,100630.000000,29016.000000,15.000000,-467.000000,894.000000
12.10.2024 12:06:59:321,627,1,2,0,128435.000000,100628.000000,29019.000000,18.000000,-465.000000,888.000000
12.10.2024 12:06:59:324,628,1,2,0,128436.000000,100628.000000,29018.000000,11.000000,-464.000000,891.000000
12.10.2024 12:06:59:327,629,1,2,0,128437.000000,100626.000000,29020.000000,15.000000,-464.000000,888.000000
12.10.2024 12:06:59:331,630,1,2,0,128433.000000,100626.000000,29017.000000,16.000000,-465.000000,885.000000
12.10.2024 12:06:59:334,631,1,2,0,128434.000000,100626.000000,29009.000000,19.000000,-466.000000,888.000000
12.10.2024 12:06:59:337,632,1,2,0,128437.000000,100622.000000,29015.000000,15.000000,-465.000000,886.000000
12.10.2024 12:06:59:340,633,1,2,0,128436.000000,100626.000000,29018.000000,14.000000,-461.000000,891.000000
12.10.2024 12:06:59:344,634,1,2,0,128442.000000,100624.000000,29016.000000,14.000000,-461.000000,891.000000
12.10.2024 12:06:59:347,635,1,2,0,128440.000000,100624.000000,29016.000000,15.000000,-465.000000,890.000000
12.10.2024 12:06:59:350,636,1,2,0,128440.000000,100625.000000,29014.000000,10.000000,-467.000000,891.000000
12.10.2024 12:06:59:353,637,1,2,0,128443.000000,100624.000000,29011.000000,14.000000,-470.000000,891.000000
12.10.2024 12:06:59:357,638,1,2,0,128442.000000,100622.000000,29014.000000,15.000000,-470.000000,887.000000
12.10.2024 12:06:59:360,639,1,2,0,128443.000000,100621.000000,29013.000000,18.000000,-471.000000,890.000000
12.10.2024 12:06:59:363,640,1,2,0,128443.000000,100621.000000,29016.000000,16.000000,-469.000000,892.000000
12.10.2024 12:06:59:366,641,1,2,0,128443.000000,100625.000000,29014.000000,15.000000,-467.000000,892.000000
12.10.2024 12:06:59:370,642,1,2,0,128444.000000,100625.000000,29011.000000,11.000000,-463.000000,891.000000
12.10.2024 12:06:59:373,643,1,2,0,128449.000000,100624.000000,29015.000000,13.000000,-464.000000,897.000000
12.10.2024 12:06:59:376,644,1,2,0,128456.000000,100627.000000,29016.000000,13.000000,-464.000000,897.000000
12.10.2024 12:06:59:379,645,1,2,0,128450.000000,100627.000000,29013.000000,14.000000,-462.000000,894.000000
12.10.2024 12:06:59:383,646,1,2,0,128454.000000,100626.000000,29015.000000,20.000000,-465.000000,886.000000
12.10.2024 12:06:59:386,647,1,2,0,128452.000000,100624.000000,29019.000000,16.000000,-463.000000,891.000000
12.10.2024 12:06:59:389,648,1,2,0,128459.000000,100621.000000,29012.000000,16.000000,-459.000000,887.000000
12.10.2024 12:06:59:392,649,1,2,0,128456.000000,100627.000000,29016.000000,16.000000,-457.000000,890.000000
12.10.2024 12:06:59:395,650,1,2,0,128458.000000,100624.000000,29012.000000,16.000000,-459.000000,887.000000
12.10.2024 12:06:59:399,651,1,2,0,128458.000000,100624.000000,29017.000000,18.000000,-456.000000,888.000000
12.10.2024 12:06:59:402,652,1,2,0,128459.000000,100623.000000,29021.000000,19.000000,-457.000000,891.000000
12.10.2024 12:06:59:405,653,1,2,0,128463.000000,100624.000000,29015.000000,16.000000,-461.000000,891.000000
12.10.2024 12:06:59:408,654,1,2,0,128458.000000,100622.000000,29020.000000,19.000000,-461.000000,891.000000
12.10.2024 12:06:59:412,655,1,2,0,128457.000000,100619.000000,29022.000000,14.000000,-470.000000,885.000000
12.10.2024 12:06:59:415,656,1,2,0,128453.000000,100619.000000,29023.000000,18.000000,-465.000000,893.000000
12.10.2024 12:06:59:418,657,1,2,0,128456.000000,100618.000000,29023.000000,16.000000,-463.000000,894.000000
12.10.2024 12:06:59:421,658,1,2,0,128453.000000,100624.000000,29024.000000,15.000000,-466.000000,890.000000
12.10.2024 12:06:59:425,659,1,2,0,128454.000000,100623.000000,29023.000000,14.000000,-465.000000,887.000000
12.10.2024 12:06:59:428,660,1,2,0,128456.000000,100620.000000,29023.000000,13.000000,-468.000000,889.000000
12.10.2024 12:06:59:431,661,1,2,0,128455.000000,100624.000000,29028.000000,16.000000,-468.000000,889.000000
12.10.2024 12:06:59:434,662,1,2,0,128458.000000,100623.000000,29030.000000,11.000000,-464.000000,889.000000
12.10.2024 12:06:59:438,663,1,2,0,128461.000000,100625.000000,29030.000000,12.000000,-463.000000,890.000000
12.10.2024 12:06:59:441,664,1,2,0,128462.000000,100628.000000,29034.000000,12.000000,-463.000000,890.000000
12.10.2024 12:06:59:444,665,1,2,0,128467.000000,100631.000000,29036.000000,14.000000,-465.000000,891.000000
12.10.2024 12:06:59:447,666,1,2,0,128469.000000,100632.000000,29042.000000,14.000000,-462.000000,893.000000
12.10.2024 12:06:59:451,667,1,2,0,128468.000000,100633.000000,29041.000000,15.000000,-463.000000,890.000000
12.10.2024 12:06:59:454,668,1,2,0,128472.000000,100638.000000,29045.000000,19.000000,-468.000000,887.000000
12.10.2024 12:06:59:457,669,1,2,0,128473.000000,100636.000000,29050.000000,14.000000,-463.000000,893.000000
12.10.2024 12:06:59:460,670,1,2,0,128475.000000,100640.000000,29051.000000,16.000000,-464.000000,888.000000
12.10.2024 12:06:59:464,671,1,2,0,128476.000000,100642.000000,29055.000000,13.000000,-465.000000,890.000000
12.10.2024 12:06:59:467,672,1,2,0,128472.000000,100644.000000,29050.000000,16.000000,-465.000000,888.000000
12.10.2024 12:06:59:470,673,1,2,0,128477.000000,100643.000000,29052.000000,13.000000,-464.000000,890.000000
12.10.2024 12:06:59:473,674,1,2,0,128479.000000,100648.000000,29056.000000,16.000000,-462.000000,887.000000
12.10.2024 12:06:59:477,675,1,2,0,128479.000000,100648.000000,29056.000000,15.000000,-459.000000,891.000000
12.10.2024 12:06:59:480,676,1,2,0,128479.000000,100650.000000,29059.000000,15.000000,-467.000000,890.000000
12.10.2024 12:06:59:483,677,1,2,0,128479.000000,100651.000000,29059.000000,15.000000,-469.000000,889.000000
12.10.2024 12:06:59:486,678,1,2,0,128477.000000,100649.000000,29061.000000,18.000000,-465.000000,889.000000
12.10.2024 12:06:59:490,679,1,2,0,128481.000000,100652.000000,29059.000000,18.000000,-462.000000,888.000000
12.10.2024 12:06:59:493,680,1,2,0,128481.000000,100650.000000,29063.000000,18.000000,-465.000000,889.000000
12.10.2024 12:06:59:496,681,1,2,0,128480.000000,100651.000000,29061.000000,14.000000,-465.000000,892.000000
12.10.2024 12:06:59:499,682,1,2,0,128471.000000,100649.000000,29059.000000,16.000000,-463.000000,888.000000
12.10.2024 12:06:59:503,683,1,2,0,128476.000000,100648.000000,29059.000000,21.000000,-467.000000,891.000000
12.10.2024 12:06:59:506,684,1,2,0,128473.000000,100646.000000,29058.000000,19.000000,-467.000000,887.000000
12.10.2024 12:06:59:509,685,1,2,0,128471.000000,100646.000000,29061.000000,15.000000,-468.000000,893.000000
12.10.2024 12:06:59:512,686,1,2,0,128469.000000,100644.000000,29062.000000,17.000000,-465.000000,892.000000
12.10.2024 12:06:59:516,687,1,2,0,128476.000000,100647.000000,29062.000000,19.000000,-463.000000,887.000000
12.10.2024 12:06:59:519,688,1,2,0,128472.000000,100640.000000,29063.000000,18.000000,-458.000000,887.000000
12.10.2024 12:06:59:522,689,1,2,0,128466.000000,100645.000000,29064.000000,15.000000,-465.000000,887.000000
12.10.2024 12:06:59:525,690,1,2,0,128474.000000,100643.000000,29063.000000,15.000000,-465.000000,887.000000
12.10.2024 12:06:59:529,691,1,2,0,128473.000000,100645.000000,29062.000000,18.000000,-464.000000,888.000000
12.10.2024 12:06:59:532,692,1,2,0,128475.000000,100646.000000,29065.000000,13.000000,-470.000000,890.000000
12.10.2024 12:06:59:535,693,1,2,0,128472.000000,100646.000000,29064.000000,13.000000,-469.000000,893.000000
12.10.2024 12:06:59:538,694,1,2,0,128475.000000,100645.000000,29059.000000,13.000000,-469.000000,893.000000
12.10.2024 12:06:59:541,695,1,2,0,128467.000000,100644.000000,29063.000000,18.000000,-470.000000,893.000000
12.10.2024 12:06:59:545,696,1,2,0,128473.000000,100648.000000,29065.000000,12.000000,-463.000000,896.000000
12.10.2024 12:06:59:548,697,1,2,0,128470.000000,100648.000000,29062.000000,18.000000,-462.000000,893.000000
12.10.2024 12:06:59:551,698,1,2,0,128470.000000,100647.000000,29061.000000,16.000000,-466.000000,894.000000
12.10.2024 12:06:59:554,699,1,2,0,128475.000000,100646.000000,29065.000000,17.000000,-466.000000,894.000000
12.10.2024 12:06:59:558,700,1,2,0,128473.000000,100641.000000,29065.000000,15.000000,-467.000000,888.000000
12.10.2024 12:06:59:561,701,1,2,0,128475.000000,100649.000000,29068.000000,16.000000,-467.000000,888.000000
12.10.2024 12:06:59:564,702,1,2,0,128475.000000,100643.000000,29066.000000,17.000000,-464.000000,889.000000
12.10.2024 12:06:59:567,703,1,2,0,128475.000000,100646.000000,29062.000000,15.000000,-465.000000,892.000000
12.10.2024 12:06:59:571,704,1,2,0,128471.000000,100644.000000,29059.000000,22.000000,-470.000000,891.000000
12.10.2024 12:06:59:574,705,1,2,0,128473.000000,100644.000000,29063.000000,17.000000,-469.000000,886.000000
12.10.2024 12:06:59:577,706,1,2,0,128479.000000,100648.000000,29067.000000,18.000000,-463.000000,887.000000
12.10.2024 12:06:59:580,707,1,2,0,128479.000000,100645.000000,29070.000000,17.000000,-463.000000,889.000000
12.10.2024 12:06:59:584,708,1,2,0,128480.000000,100652.000000,29068.000000,17.000000,-466.000000,893.000000
12.10.2024 12:06:59:587,709,1,2,0,128484.000000,100649.000000,29070.000000,17.000000,-461.000000,888.000000
12.10.2024 12:06:59:590,710,1,2,0,128487.000000,100648.000000,29065.000000,17.000000,-466.000000,893.000000
12.10.2024 12:06:59:593,711,1,2,0,128480.000000,100648.000000,29066.000000,16.000000,-465.000000,889.000000
12.10.2024 12:06:59:597,712,1,2,0,128486.000000,100650.000000,29068.000000,14.000000,-464.000000,891.000000
12.10.2024 12:06:59:600,713,1,2,0,128490.000000,100648.000000,29067.000000,16.000000,-462.000000,886.000000
12.10.2024 12:06:59:603,714,1,2,0,128486.000000,100649.000000,29065.000000,14.000000,-463.000000,891.000000
12.10.2024 12:06:59:606,715,1,2,0,128486.000000,100652.000000,29065.000000,14.000000,-465.000000,893.000000
12.10.2024 12:06:59:610,716,1,2,0,128490.000000,100654.000000,29066.000000,12.000000,-463.000000,889.000000
12.10.2024 12:06:59:613,717,1,2,0,128492.000000,100652.000000,29067.000000,15.000000,-466.000000,889.000000
12.10.2024 12:06:59:616,718,1,2,0,128491.000000,100652.000000,29066.000000,20.000000,-461.000000,887.000000
12.10.2024 12:06:59:619,719,1,2,0,128490.000000,100650.000000,29067.000000,17.000000,-464.000000,892.000000
12.10.2024 12:06:59:623,720,1,2,0,128492.000000,100653.000000,29070.000000,14.000000,-462.000000,885.000000
12.10.2024 12:06:59:626,721,1,2,0,128498.000000,100655.000000,29074.000000,16.000000,-460.000000,892.000000
12.10.2024 12:06:59:629,722,1,2,0,128498.000000,100654.000000,29067.000000,13.000000,-460.000000,895.000000
12.10.2024 12:06:59:632,723,1,2,0,128501.000000,100657.000000,29072.000000,11.000000,-467.000000,891.000000
12.10.2024 12:06:59:636,724,1,2,0,128503.000000,100655.000000,29073.000000,11.000000,-467.000000,891.000000
12.10.2024 12:06:59:639,725,1,2,0,128504.000000,100652.000000,29070.000000,14.000000,-467.000000,892.000000
12.10.2024 12:06:59:642,726,1,2,0,128494.000000,100654.000000,29075.000000,21.000000,-471.000000,889.000000
12.10.2024 12:06:59:645,727,1,2,0,128499.000000,100655.000000,29075.000000,13.000000,-468.000000,893.000000
12.10.2024 12:06:59:649,728,1,2,0,128507.000000,100655.000000,29076.000000,15.000000,-468.000000,896.000000
12.10.2024 12:06:59:652,729,1,2,0,128502.000000,100656.000000,29078.000000,20.000000,-468.000000,892.000000
12.10.2024 12:06:59:655,730,1,2,0,128504.000000,100657.000000,29079.000000,14.000000,-465.000000,888.000000
12.10.2024 12:06:59:658,731,1,2,0,128502.000000,100655.000000,29079.000000,15.000000,-466.000000,894.000000
12.10.2024 12:06:59:662,732,1,2,0,128508.000000,100653.000000,29078.000000,13.000000,-468.000000,883.000000
12.10.2024 12:06:59:665,733,1,2,0,128504.000000,100655.000000,29077.000000,18.000000,-464.000000,893.000000
12.10.2024 12:06:59:668,734,1,2,0,128502.000000,100653.000000,29082.000000,16.000000,-466.000000,888.000000
12.10.2024 12:06:59:671,735,1,2,0,128507.000000,100654.000000,29079.000000,16.000000,-465.000000,886.000000
12.10.2024 12:06:59:675,736,1,2,0,128507.000000,100653.000000,29078.000000,16.000000,-464.000000,894.000000
12.10.2024 12:06:59:678,737,1,2,0,128503.000000,100654.000000,29081.000000,16.000000,-464.000000,894.000000
12.10.2024 12:06:59:681,738,1,2,0,128508.000000,100653.000000,29079.000000,18.000000,-461.000000,891.000000
12.10.2024 12:06:59:684,739,1,2,0,128506.000000,100653.000000,29086.000000,15.000000,-461.000000,885.000000
12.10.2024 12:06:59:688,740,1,2,0,128511.000000,100650.000000,29086.000000,15.000000,-461.000000,885.000000
12.10.2024 12:06:59:691,741,1,2,0,128511.000000,100652.000000,29085.000000,13.000000,-457.000000,890.000000
12.10.2024 12:06:59:694,742,1,2,0,128507.000000,100650.000000,29087.000000,15.000000,-461.000000,885.000000
12.10.2024 12:06:59:697,743,1,2,0,128513.000000,100655.000000,29083.000000,10.000000,-458.000000,894.000000
12.10.2024 12:06:59:700,744,1,2,0,128517.000000,100651.000000,29083.000000,12.000000,-459.000000,893.000000
12.10.2024 12:06:59:704,745,1,2,0,128514.000000,100654.000000,29083.000000,17.000000,-463.000000,895.000000
12.10.2024 12:06:59:707,746,1,2,0,128517.000000,100655.000000,29091.000000,15.000000,-463.000000,890.000000
12.10.2024 12:06:59:710,747,1,2,0,128516.000000,100651.000000,29090.000000,11.000000,-466.000000,894.000000
12.10.2024 12:06:59:713,748,1,2,0,128513.000000,100654.000000,29088.000000,15.000000,-468.000000,890.000000
12.10.2024 12:06:59:717,749,1,2,0,128521.000000,100653.000000,29093.000000,14.000000,-473.000000,892.000000
12.10.2024 12:06:59:720,750,1,2,0,128515.000000,100645.000000,29093.000000,18.000000,-474.000000,890.000000
12.10.2024 12:06:59:723,751,1,2,0,128523.000000,100648.000000,29093.000000,15.000000,-469.000000,888.000000
12.10.2024 12:06:59:726,752,1,2,0,128520.000000,100654.000000,29092.000000,16.000000,-470.000000,887.000000
12.10.2024 12:06:59:730,753,1,2,0,128522.000000,100654.000000,29092.000000,15.000000,-467.000000,891.000000
12.10.2024 12:06:59:733,754,1,2,0,128521.000000,100656.000000,29096.000000,15.000000,-467.000000,891.000000
12.10.2024 12:06:59:736,755,1,2,0,128526.000000,100651.000000,29096.000000,15.000000,-465.000000,891.000000
12.10.2024 12:06:59:739,756,1,2,0,128531.000000,100659.000000,29100.000000,15.000000,-463.000000,889.000000
12.10.2024 12:06:59:743,757,1,2,0,128529.000000,100656.000000,29097.000000,12.000000,-466.000000,889.000000
12.10.2024 12:06:59:746,758,1,2,0,128530.000000,100656.000000,29096.000000,12.000000,-468.000000,894.000000
12.10.2024 12:06:59:749,759,1,2,0,128530.000000,100660.000000,29096.000000,17.000000,-464.000000,892.000000
12.10.2024 12:06:59:752,760,1,2,0,128537.000000,100658.000000,29102.000000,16.000000,-461.000000,892.000000
12.10.2024 12:06:59:756,761,1,2,0,128541.000000,100662.000000,29104.000000,17.000000,-460.000000,888.000000
12.10.2024 12:06:59:759,762,1,2,0,128537.000000,100660.000000,29105.000000,13.000000,-459.000000,891.000000
12.10.2024 12:06:59:762,763,1,2,0,128543.000000,100661.000000,29100.000000,12.000000,-461.000000,894.000000
12.10.2024 12:06:59:765,764,1,2,0,128540.000000,100662.000000,29107.000000,16.000000,-455.000000,890.000000
12.10.2024 12:06:59:769,765,1,2,0,128542.000000,100660.000000,29104.000000,12.000000,-459.000000,887.000000
12.10.2024 12:06:59:772,766,1,2,0,128545.000000,100668.000000,29108.000000,16.000000,-460.000000,890.000000
12.10.2024 12:06:59:775,767,1,2,0,128547.000000,100668.000000,29114.000000,14.000000,-464.000000,892.000000
12.10.2024 12:06:59:778,768,1,2,0,128548.000000,100666.000000,29105.000000,10.000000,-457.000000,890.000000
12.10.2024 12:06:59:782,769,1,2,0,128547.000000,100669.000000,29110.000000,8.000000,-464.000000,891.000000
12.10.2024 12:06:59:785,770,1,2,0,128553.000000,100671.000000,29116.000000,18.000000,-464.000000,889.000000
12.10.2024 12:06:59:788,771,1,2,0,128556.000000,100671.000000,29114.000000,14.000000,-467.000000,892.000000
12.10.2024 12:06:59:791,772,1,2,0,128551.000000,100670.000000,29116.000000,15.000000,-464.000000,894.000000
12.10.2024 12:06:59:795,773,1,2,0,128558.000000,100671.000000,29117.000000,12.000000,-458.000000,893.000000
12.10.2024 12:06:59:798,774,1,2,0,128558.000000,100674.000000,29119.000000,13.000000,-465.000000,895.000000
12.10.2024 12:06:59:801,775,1,2,0,128558.000000,100672.000000,29120.000000,16.000000,-465.000000,892.000000
12.10.2024 12:06:59:804,776,1,2,0,128562.000000,100672.000000,29118.000000,9.000000,-467.000000,893.000000
12.10.2024 12:06:59:808,777,1,2,0,128564.000000,100672.000000,29123.000000,16.000000,-467.000000,894.000000
12.10.2024 12:06:59:811,778,1,2,0,128561.000000,100674.000000,29120.000000,20.000000,-470.000000,891.000000
12.10.2024 12:06:59:814,779,1,2,0,128559.000000,100668.000000,29123.000000,14.000000,-468.000000,890.000000
12.10.2024 12:06:59:817,780,1,2,0,128563.000000,100670.000000,29119.000000,12.000000,-463.000000,887.000000
12.10.2024 12:06:59:821,781,1,2,0,128568.000000,100675.000000,29127.000000,17.000000,-464.000000,898.000000
12.10.2024 12:06:59:824,782,1,2,0,128564.000000,100674.000000,29129.000000,15.000000,-461.000000,889.000000
12.10.2024 12:06:59:827,783,1,2,0,128570.000000,100669.000000,29128.000000,14.000000,-468.000000,891.000000
12.10.2024 12:06:59:830,784,1,2,0,128567.000000,100673.000000,29126.000000,15.000000,-461.000000,891.000000
12.10.2024 12:06:59:834,785,1,2,0,128562.000000,100672.000000,29129.000000,17.000000,-463.000000,890.000000
12.10.2024 12:06:59:837,786,1,2,0,128566.000000,100669.000000,29131.000000,13.000000,-461.000000,892.000000
12.10.2024 12:06:59:840,787,1,2,0,128559.000000,100666.000000,29128.000000,17.000000,-461.000000,892.000000
12.10.2024 12:06:59:843,788,1,2,0,128560.000000,100669.000000,29129.000000,17.000000,-456.000000,890.000000
12.10.2024 12:06:59:846,789,1,2,0,128568.000000,100670.000000,29132.000000,12.000000,-463.000000,891.000000
12.10.2024 12:06:59:850,790,1,2,0,128567.000000,100671.000000,29137.000000,11.000000,-462.000000,892.000000
12.10.2024 12:06:59:853,791,1,2,0,128560.000000,100673.000000,29133.000000,12.000000,-461.000000,891.000000
12.10.2024 12:06:59:856,792,1,2,0,128568.000000,100672.000000,29139.000000,16.000000,-465.000000,889.000000
12.10.2024 12:06:59:859,793,1,2,0,128571.000000,100673.000000,29139.000000,10.000000,-462.000000,890.000000
12.10.2024 12:06:59:863,794,1,2,0,128571.000000,100676.000000,29145.000000,12.000000,-460.000000,894.000000
12.10.2024 12:06:59:866,795,1,2,0,128575.000000,100678.000000,29150.000000,16.000000,-465.000000,893.000000
12.10.2024 12:06:59:869,796,1,2,0,128575.000000,100688.000000,29154.000000,13.000000,-468.000000,890.000000
12.10.2024 12:06:59:872,797,1,2,0,128577.000000,100688.000000,29157.000000,15.000000,-470.000000,890.000000
12.10.2024 12:06:59:876,798,1,2,0,128575.000000,100688.000000,29161.000000,14.000000,-468.000000,888.000000
12.10.2024 12:06:59:879,799,1,2,0,128570.000000,100688.000000,29169.000000,15.000000,-474.000000,886.000000
12.10.2024 12:06:59:882,800,1,2,0,128572.000000,100690.000000,29164.000000,18.000000,-466.000000,888.000000
12.10.2024 12:06:59:885,801,1,2,0,128574.000000,100696.000000,29171.000000,12.000000,-464.000000,887.000000
12.10.2024 12:06:59:889,802,1,2,0,128571.000000,100696.000000,29167.000000,9.000000,-463.000000,890.000000
12.10.2024 12:06:59:892,803,1,2,0,128573.000000,100693.000000,29171.000000,16.000000,-467.000000,891.000000
12.10.2024 12:06:59:895,804,1,2,0,128566.000000,100695.000000,29168.000000,15.000000,-463.000000,890.000000
12.10.2024 12:06:59:898,805,1,2,0,128570.000000,100693.000000,29174.000000,12.000000,-471.000000,888.000000
12.10.2024 12:06:59:902,806,1,2,0,128571.000000,100699.000000,29173.000000,10.000000,-465.000000,890.000000
12.10.2024 12:06:59:905,807,1,2,0,128563.000000,100698.000000,29171.000000,11.000000,-467.000000,888.000000
12.10.2024 12:06:59:908,808,1,2,0,128569.000000,100703.000000,29167.000000,11.000000,-463.000000,889.000000
12.10.2024 12:06:59:911,809,1,2,0,128572.000000,100704.000000,29170.000000,11.000000,-464.000000,889.000000
12.10.2024 12:06:59:915,810,1,2,0,128577.000000,100705.000000,29172.000000,13.000000,-463.000000,891.000000
12.10.2024 12:06:59:918,811,1,2,0,128569.000000,100704.000000,29166.000000,15.000000,-467.000000,892.000000
12.10.2024 12:06:59:921,812,1,2,0,128569.000000,100705.000000,29167.000000,14.000000,-464.000000,889.000000
12.10.2024 12:06:59:924,813,1,2,0,128570.000000,100706.000000,29167.000000,17.000000,-470.000000,890.000000
12.10.2024 12:06:59:928,814,1,2,0,128570.000000,100707.000000,29161.000000,21.000000,-467.000000,891.000000
12.10.2024 12:06:59:931,815,1,2,0,128566.000000,100706.000000,29167.000000,12.000000,-470.000000,888.000000
12.10.2024 12:06:59:934,816,1,2,0,128563.000000,100706.000000,29159.000000,18.000000,-466.000000,888.000000
12.10.2024 12:06:59:937,817,1,2,0,128563.000000,100708.000000,29156.000000,14.000000,-463.000000,889.000000
12.10.2024 12:06:59:941,818,1,2,0,128573.000000,100708.000000,29159.000000,13.000000,-465.000000,894.000000
12.10.2024 12:06:59:944,819,1,2,0,128567.000000,100706.000000,29153.000000,9.000000,-460.000000,893.000000
12.10.2024 12:06:59:947,820,1,2,0,128570.000000,100714.000000,29153.000000,14.000000,-459.000000,893.000000
12.10.2024 12:06:59:950,821,1,2,0,128564.000000,100709.000000,29150.000000,12.000000,-462.000000,891.000000
12.10.2024 12:06:59:954,822,1,2,0,128567.000000,100708.000000,29148.000000,15.000000,-468.000000,890.000000
12.10.2024 12:06:59:957,823,1,2,0,128568.000000,100705.000000,29151.000000,17.000000,-465.000000,887.000000
12.10.2024 12:06:59:960,824,1,2,0,128564.000000,100707.000000,29150.000000,18.000000,-470.000000,891.000000
12.10.2024 12:06:59:963,825,1,2,0,128565.000000,100704.000000,29146.000000,18.000000,-465.000000,892.000000
12.10.2024 12:06:59:967,826,1,2,0,128563.000000,100701.000000,29144.000000,17.000000,-468.000000,888.000000
12.10.2024 12:06:59:970,827,1,2,0,128562.000000,100703.000000,29138.000000,16.000000,-462.000000,888.000000
12.10.2024 12:06:59:973,828,1,2,0,128561.000000,100701.000000,29144.000000,15.000000,-465.000000,887.000000
12.10.2024 12:06:59:976,829,1,2,0,128560.000000,100700.000000,29136.000000,17.000000,-462.000000,886.000000
12.10.2024 12:06:59:980,830,1,2,0,128560.000000,100704.000000,29133.000000,16.000000,-464.000000,888.000000
12.10.2024 12:06:59:983,831,1,2,0,128564.000000,100700.000000,29135.000000,13.000000,-460.000000,886.000000
12.10.2024 12:06:59:986,832,1,2,0,128564.000000,100706.000000,29132.000000,14.000000,-463.000000,890.000000
12.10.2024 12:06:59:989,833,1,2,0,128562.000000,100703.000000,29134.000000,15.000000,-463.000000,889.000000
12.10.2024 12:06:59:992,834,1,2,0,128569.000000,100699.000000,29133.000000,16.000000,-464.000000,894.000000
12.10.2024 12:06:59:996,835,1,2,0,128566.000000,100701.000000,29134.000000,13.000000,-466.000000,894.000000
12.10.2024 12:06:59:999,836,1,2,0,128563.000000,100704.000000,29132.000000,17.000000,-467.000000,890.000000
12.10.2024 12:07:00:2,837,1,2,0,128566.000000,100704.000000,29132.000000,13.000000,-463.000000,890.000000
12.10.2024 12:07:00:5,838,1,2,0,128564.000000,100704.000000,29134.000000,12.000000,-463.000000,891.000000
12.10.2024 12:07:00:9,839,1,2,0,128569.000000,100705.000000,29131.000000,14.000000,-459.000000,893.000000
12.10.2024 12:07:00:12,840,1,2,0,128572.000000,100705.000000,29135.000000,15.000000,-455.000000,894.000000
12.10.2024 12:07:00:15,841,1,2,0,128572.000000,100707.000000,29133.000000,8.000000,-465.000000,892.000000
12.10.2024 12:07:00:18,842,1,2,0,128573.000000,100709.000000,29133.000000,16.000000,-468.000000,892.000000
12.10.2024 12:07:00:22,843,1,2,0,128572.000000,100711.000000,29131.000000,14.000000,-466.000000,891.000000
12.10.2024 12:07:00:25,844,1,2,0,128574.000000,100706.000000,29127.000000,15.000000,-468.000000,889.000000
12.10.2024 12:07:00:28,845,1,2,0,128579.000000,100705.000000,29127.000000,13.000000,-461.000000,888.000000
12.10.2024 12:07:00:31,846,1,2,0,128573.000000,100703.000000,29126.000000,11.000000,-466.000000,889.000000
12.10.2024 12:07:00:35,847,1,2,0,128571.000000,100706.000000,29126.000000,6.000000,-464.000000,893.000000
12.10.2024 12:07:00:38,848,1,2,0,128578.000000,100704.000000,29129.000000,11.000000,-461.000000,892.000000
12.10.2024 12:07:00:41,849,1,2,0,128580.000000,100706.000000,29137.000000,10.000000,-464.000000,888.000000
12.10.2024 12:07:00:44,850,1,2,0,128576.000000,100708.000000,29130.000000,12.000000,-463.000000,890.000000
12.10.2024 12:07:00:48,851,1,2,0,128574.000000,100706.000000,29127.000000,11.000000,-468.000000,891.000000
12.10.2024 12:07:00:51,852,1,2,0,128576.000000,100705.000000,29136.000000,14.000000,-465.000000,888.000000
12.10.2024 12:07:00:54,853,1,2,0,128581.000000,100702.000000,29127.000000,14.000000,-466.000000,891.000000
12.10.2024 12:07:00:57,854,1,2,0,128585.000000,100703.000000,29129.000000,9.000000,-465.000000,890.000000
12.10.2024 12:07:00:61,855,1,2,0,128580.000000,100706.000000,29132.000000,12.000000,-462.000000,893.000000
12.10.2024 12:07:00:64,856,1,2,0,128578.000000,100702.000000,29127.000000,15.000000,-461.000000,894.000000
12.10.2024 12:07:00:67,857,1,2,0,128579.000000,100702.000000,29132.000000,16.000000,-466.000000,894.000000
12.10.2024 12:07:00:70,858,1,2,0,128584.000000,100705.000000,29131.000000,15.000000,-461.000000,885.000000
12.10.2024 12:07:00:74,859,1,2,0,128591.000000,100703.000000,29133.000000,12.000000,-464.000000,886.000000
12.10.2024 12:07:00:77,860,1,2,0,128585.000000,100704.000000,29129.000000,16.000000,-465.000000,889.000000
12.10.2024 12:07:00:80,861,1,2,0,128590.000000,100702.000000,29129.000000,15.000000,-463.000000,888.000000
12.10.2024 12:07:00:83,862,1,2,0,128587.000000,100709.000000,29132.000000,15.000000,-464.000000,892.000000
12.10.2024 12:07:00:87,863,1,2,0,128586.000000,100706.000000,29129.000000,17.000000,-462.000000,892.000000
12.10.2024 12:07:00:90,864,1,2,0,128591.000000,100704.000000,29137.000000,12.000000,-462.000000,892.000000
12.10.2024 12:07:00:93,865,1,2,0,128597.000000,100709.000000,29136.000000,14.000000,-463.000000,894.000000
12.10.2024 12:07:00:96,866,1,2,0,128600.000000,100712.000000,29138.000000,12.000000,-462.000000,891.000000
12.10.2024 12:07:00:100,867,1,2,0,128597.000000,100710.000000,29137.000000,10.000000,-466.000000,891.000000
12.10.2024 12:07:00:103,868,1,2,0,128595.000000,100705.000000,29139.000000,17.000000,-466.000000,892.000000
12.10.2024 12:07:00:106,869,1,2,0,128595.000000,100708.000000,29145.000000,15.000000,-471.000000,894.000000
12.10.2024 12:07:00:109,870,1,2,0,128596.000000,100707.000000,29143.000000,13.000000,-471.000000,885.000000
12.10.2024 12:07:00:113,871,1,2,0,128597.000000,100711.000000,29144.000000,15.000000,-460.000000,884.000000
12.10.2024 12:07:00:116,872,1,2,0,128600.000000,100712.000000,29144.000000,10.000000,-458.000000,892.000000
12.10.2024 12:07:00:119,873,1,2,0,128599.000000,100710.000000,29145.000000,9.000000,-454.000000,889.000000
12.10.2024 12:07:00:122,874,1,2,0,128603.000000,100717.000000,29155.000000,10.000000,-460.000000,892.000000
12.10.2024 12:07:00:126,875,1,2,0,128606.000000,100720.000000,29150.000000,15.000000,-465.000000,892.000000
12.10.2024 12:07:00:129,876,1,2,0,128605.000000,100715.000000,29152.000000,13.000000,-466.000000,893.000000
12.10.2024 12:07:00:132,877,1,2,0,128605.000000,100715.000000,29151.000000,18.000000,-468.000000,894.000000
12.10.2024 12:07:00:135,878,1,2,0,128602.000000,100719.000000,29156.000000,15.000000,-472.000000,894.000000
12.10.2024 12:07:00:139,879,1,2,0,128607.000000,100718.000000,29164.000000,15.000000,-473.000000,888.000000
12.10.2024 12:07:00:142,880,1,2,0,128606.000000,100719.000000,29157.000000,14.000000,-468.000000,890.000000
12.10.2024 12:07:00:145,881,1,2,0,128604.000000,100720.000000,29161.000000,11.000000,-464.000000,889.000000
12.10.2024 12:07:00:148,882,1,2,0,128605.000000,100719.000000,29163.000000,13.000000,-468.000000,893.000000
12.10.2024 12:07:00:151,883,1,2,0,128612.000000,100720.000000,29162.000000,15.000000,-469.000000,884.000000
12.10.2024 12:07:00:155,884,1,2,0,128612.000000,100724.000000,29165.000000,15.000000,-469.000000,884.000000
12.10.2024 12:07:00:158,885,1,2,0,128612.000000,100724.000000,29166.000000,12.000000,-464.000000,886.000000
12.10.2024 12:07:00:161,886,1,2,0,128616.000000,100726.000000,29168.000000,12.000000,-464.000000,889.000000
12.10.2024 12:07:00:164,887,1,2,0,128616.000000,100725.000000,29172.000000,12.000000,-468.000000,890.000000
12.10.2024 12:07:00:168,888,1,2,0,128614.000000,100728.000000,29168.000000,10.000000,-462.000000,892.000000
12.10.2024 12:07:00:171,889,1,2,0,128616.000000,100733.000000,29169.000000,13.000000,-467.000000,888.000000
12.10.2024 12:07:00:174,890,1,2,0,128616.000000,100730.000000,29174.000000,14.000000,-461.000000,890.000000
12.10.2024 12:07:00:177,891,1,2,0,128617.000000,100728.000000,29171.000000,12.000000,-466.000000,895.000000
12.10.2024 12:07:00:181,892,1,2,0,128621.000000,100731.000000,29174.000000,13.000000,-465.000000,890.000000
12.10.2024 12:07:00:184,893,1,2,0,128624.000000,100736.000000,29174.000000,18.000000,-459.000000,888.000000
12.10.2024 12:07:00:187,894,1,2,0,128623.000000,100736.000000,29175.000000,14.000000,-458.000000,893.000000
12.10.2024 12:07:00:190,895,1,2,0,128623.000000,100731.000000,29174.000000,10.000000,-454.000000,888.000000
12.10.2024 12:07:00:194,896,1,2,0,128623.000000,100735.000000,29173.000000,17.000000,-461.000000,889.000000
12.10.2024 12:07:00:197,897,1,2,0,128623.000000,100733.000000,29173.000000,9.000000,-462.000000,888.000000
12.10.2024 12:07:00:200,898,1,2,0,128620.000000,100734.000000,29180.000000,16.000000,-463.000000,887.000000
12.10.2024 12:07:00:203,899,1,2,0,128622.000000,100738.000000,29181.000000,11.000000,-464.000000,890.000000
12.10.2024 12:07:00:207,900,1,2,0,128622.000000,100734.000000,29174.000000,14.000000,-459.000000,892.000000
12.10.2024 12:07:00:210,901,1,2,0,128626.000000,100739.000000,29180.000000,11.000000,-464.000000,894.000000
12.10.2024 12:07:00:213,902,1,2,0,128619.000000,100736.000000,29181.000000,12.000000,-461.000000,892.000000
12.10.2024 12:07:00:216,903,1,2,0,128627.000000,100730.000000,29175.000000,11.000000,-466.000000,893.000000
12.10.2024 12:07:00:220,904,1,2,0,128622.000000,100732.000000,29176.000000,10.000000,-466.000000,893.000000
12.10.2024 12:07:00:223,905,1,2,0,128620.000000,100731.000000,29178.000000,14.000000,-464.000000,888.000000
12.10.2024 12:07:00:226,906,1,2,0,128621.000000,100732.000000,29181.000000,10.000000,-466.000000,893.000000
12.10.2024 12:07:00:229,907,1,2,0,128623.000000,100725.000000,29179.000000,15.000000,-465.000000,888.000000
12.10.2024 12:07:00:233,908,1,2,0,128620.000000,100728.000000,29176.000000,11.000000,-466.000000,885.000000
12.10.2024 12:07:00:236,909,1,2,0,128620.000000,100734.000000,29177.000000,13.000000,-464.000000,897.000000
12.10.2024 12:07:00:239,910,1,2,0,128620.000000,100734.000000,29184.000000,9.000000,-464.000000,889.000000
12.10.2024 12:07:00:242,911,1,2,0,128620.000000,100735.000000,29175.000000,15.000000,-462.000000,895.000000
12.10.2024 12:07:00:246,912,1,2,0,128618.000000,100730.000000,29181.000000,14.000000,-467.000000,888.000000
12.10.2024 12:07:00:249,913,1,2,0,128617.000000,100735.000000,29178.000000,13.000000,-471.000000,887.000000
12.10.2024 12:07:00:252,914,1,2,0,128615.000000,100731.000000,29173.000000,16.000000,-471.000000,893.000000
12.10.2024 12:07:00:255,915,1,2,0,128616.000000,100729.000000,29175.000000,10.000000,-466.000000,889.000000
12.10.2024 12:07:00:259,916,1,2,0,128615.000000,100727.000000,29173.000000,14.000000,-466.000000,892.000000
12.10.2024 12:07:00:262,917,1,2,0,128616.000000,100728.000000,29173.000000,12.000000,-465.000000,890.000000
12.10.2024 12:07:00:265,918,1,2,0,128618.000000,100728.000000,29173.000000,13.000000,-462.000000,890.000000
12.10.2024 12:07:00:268,919,1,2,0,128619.000000,100734.000000,29176.000000,8.000000,-466.000000,890.000000
12.10.2024 12:07:00:272,920,1,2,0,128615.000000,100728.000000,29179.000000,15.000000,-462.000000,884.000000
12.10.2024 12:07:00:275,921,1,2,0,128620.000000,100735.000000,29175.000000,12.000000,-461.000000,889.000000
12.10.2024 12:07:00:278,922,1,2,0,128620.000000,100734.000000,29175.000000,14.000000,-460.000000,892.000000
12.10.2024 12:07:00:281,923,1,2,0,128622.000000,100732.000000,29175.000000,10.000000,-461.000000,890.000000
12.10.2024 12:07:00:285,924,1,2,0,128630.000000,100735.000000,29175.000000,9.000000,-462.000000,894.000000
12.10.2024 12:07:00:288,925,1,2,0,128623.000000,100737.000000,29177.000000,11.000000,-460.000000,891.000000
12.10.2024 12:07:00:291,926,1,2,0,128633.000000,100734.000000,29178.000000,10.000000,-464.000000,891.000000
12.10.2024 12:07:00:294,927,1,2,0,128629.000000,100738.000000,29181.000000,14.000000,-462.000000,891.000000
12.10.2024 12:07:00:297,928,1,2,0,128634.000000,100738.000000,29180.000000,16.000000,-459.000000,892.000000
12.10.2024 12:07:00:301,929,1,2,0,128633.000000,100739.000000,29175.000000,13.000000,-463.000000,890.000000
12.10.2024 12:07:00:304,930,1,2,0,128631.000000,100738.000000,29179.000000,13.000000,-463.000000,890.000000
12.10.2024 12:07:00:307,931,1,2,0,128633.000000,100740.000000,29181.000000,13.000000,-466.000000,894.000000
12.10.2024 12:07:00:310,932,1,2,0,128631.000000,100734.000000,29178.000000,14.000000,-464.000000,893.000000
12.10.2024 12:07:00:314,933,1,2,0,128634.000000,100732.000000,29174.000000,12.000000,-463.000000,894.000000
12.10.2024 12:07:00:317,934,1,2,0,128627.000000,100731.000000,29177.000000,17.000000,-467.000000,887.000000
12.10.2024 12:07:00:320,935,1,2,0,128627.000000,100730.000000,29175.000000,16.000000,-469.000000,892.000000
12.10.2024 12:07:00:323,936,1,2,0,128625.000000,100726.000000,29183.000000,14.000000,-466.000000,887.000000
12.10.2024 12:07:00:327,937,1,2,0,128627.000000,100729.000000,29183.000000,10.000000,-463.000000,888.000000
12.10.2024 12:07:00:330,938,1,2,0,128627.000000,100730.000000,29177.000000,17.000000,-464.000000,891.000000
12.10.2024 12:07:00:333,939,1,2,0,128628.000000,100728.000000,29177.000000,7.000000,-459.000000,891.000000
12.10.2024 12:07:00:336,940,1,2,0,128632.000000,100728.000000,29177.000000,16.000000,-465.000000,894.000000
12.10.2024 12:07:00:340,941,1,2,0,128633.000000,100728.000000,29178.000000,13.000000,-469.000000,893.000000
12.10.2024 12:07:00:343,942,1,2,0,128630.000000,100726.000000,29176.000000,9.000000,-464.000000,892.000000
12.10.2024 12:07:00:346,943,1,2,0,128630.000000,100726.000000,29179.000000,16.000000,-466.000000,892.000000
12.10.2024 12:07:00:349,944,1,2,0,128622.000000,100726.000000,29177.000000,15.000000,-467.000000,891.000000
12.10.2024 12:07:00:353,945,1,2,0,128634.000000,100723.000000,29181.000000,14.000000,-461.000000,887.000000
12.10.2024 12:07:00:356,946,1,2,0,128631.000000,100727.000000,29181.000000,14.000000,-468.000000,891.000000
12.10.2024 12:07:00:359,947,1,2,0,128640.000000,100724.000000,29184.000000,12.000000,-464.000000,891.000000
12.10.2024 12:07:00:362,948,1,2,0,128636.000000,100726.000000,29186.000000,10.000000,-463.000000,893.000000
12.10.2024 12:07:00:366,949,1,2,0,128642.000000,100729.000000,29180.000000,10.000000,-464.000000,890.000000
12.10.2024 12:07:00:369,950,1,2,0,128641.000000,100727.000000,29183.000000,13.000000,-469.000000,888.000000
12.10.2024 12:07:00:372,951,1,2,0,128636.000000,100732.000000,29188.000000,14.000000,-465.000000,892.000000
12.10.2024 12:07:00:375,952,1,2,0,128640.000000,100732.000000,29188.000000,9.000000,-470.000000,892.000000
12.10.2024 12:07:00:379,953,1,2,0,128638.000000,100730.000000,29189.000000,12.000000,-466.000000,891.000000
12.10.2024 12:07:00:382,954,1,2,0,128640.000000,100729.000000,29190.000000,12.000000,-468.000000,883.000000
12.10.2024 12:07:00:385,955,1,2,0,128639.000000,100727.000000,29187.000000,11.000000,-466.000000,890.000000
12.10.2024 12:07:00:388,956,1,2,0,128642.000000,100728.000000,29186.000000,10.000000,-465.000000,887.000000
12.10.2024 12:07:00:392,957,1,2,0,128641.000000,100732.000000,29187.000000,7.000000,-458.000000,890.000000
12.10.2024 12:07:00:395,958,1,2,0,128645.000000,100728.000000,29185.000000,10.000000,-459.000000,887.000000
12.10.2024 12:07:00:398,959,1,2,0,128649.000000,100732.000000,29192.000000,10.000000,-462.000000,893.000000
12.10.2024 12:07:00:401,960,1,2,0,128649.000000,100732.000000,29197.000000,9.000000,-468.000000,889.000000
12.10.2024 12:07:00:405,961,1,2,0,128653.000000,100732.000000,29191.000000,14.000000,-463.000000,894.000000
12.10.2024 12:07:00:408,962,1,2,0,128655.000000,100733.000000,29191.000000,14.000000,-462.000000,892.000000
12.10.2024 12:07:00:411,963,1,2,0,128655.000000,100733.000000,29197.000000,13.000000,-466.000000,894.000000
12.10.2024 12:07:00:414,964,1,2,0,128653.000000,100727.000000,29190.000000,15.000000,-464.000000,893.000000
12.10.2024 12:07:00:418,965,1,2,0,128653.000000,100731.000000,29193.000000,14.000000,-469.000000,887.000000
12.10.2024 12:07:00:421,966,1,2,0,128654.000000,100726.000000,29194.000000,17.000000,-467.000000,892.000000
12.10.2024 12:07:00:424,967,1,2,0,128649.000000,100724.000000,29196.000000,15.000000,-464.000000,892.000000
12.10.2024 12:07:00:427,968,1,2,0,128649.000000,100722.000000,29193.000000,16.000000,-465.000000,887.000000
12.10.2024 12:07:00:431,969,1,2,0,128651.000000,100721.000000,29193.000000,12.000000,-469.000000,888.000000
12.10.2024 12:07:00:434,970,1,2,0,128646.000000,100722.000000,29194.000000,16.000000,-463.000000,888.000000
12.10.2024 12:07:00:437,971,1,2,0,128643.000000,100723.000000,29196.000000,17.000000,-465.000000,890.000000
12.10.2024 12:07:00:440,972,1,2,0,128643.000000,100723.000000,29197.000000,17.000000,-464.000000,884.000000
12.10.2024 12:07:00:443,973,1,2,0,128647.000000,100722.000000,29193.000000,16.000000,-468.000000,885.000000
12.10.2024 12:07:00:447,974,1,2,0,128650.000000,100720.000000,29197.000000,14.000000,-466.000000,889.000000
12.10.2024 12:07:00:450,975,1,2,0,128650.000000,100723.000000,29203.000000,12.000000,-462.000000,891.000000
12.10.2024 12:07:00:453,976,1,2,0,128653.000000,100722.000000,29207.000000,12.000000,-462.000000,891.000000
12.10.2024 12:07:00:456,977,1,2,0,128657.000000,100731.000000,29204.000000,10.000000,-462.000000,892.000000
12.10.2024 12:07:00:460,978,1,2,0,128655.000000,100729.000000,29203.000000,9.000000,-465.000000,889.000000
12.10.2024 12:07:00:463,979,1,2,0,128653.000000,100731.000000,29206.000000,12.000000,-462.000000,892.000000
12.10.2024 12:07:00:466,980,1,2,0,128661.000000,100728.000000,29213.000000,14.000000,-467.000000,890.000000
12.10.2024 12:07:00:469,981,1,2,0,128664.000000,100733.000000,29209.000000,11.000000,-465.000000,887.000000
12.10.2024 12:07:00:473,982,1,2,0,128665.000000,100735.000000,29211.000000,12.000000,-464.000000,893.000000
12.10.2024 12:07:00:476,983,1,2,0,128664.000000,100737.000000,29209.000000,12.000000,-467.000000,891.000000
12.10.2024 12:07:00:479,984,1,2,0,128669.000000,100741.000000,29222.000000,17.000000,-467.000000,892.000000
12.10.2024 12:07:00:482,985,1,2,0,128670.000000,100738.000000,29219.000000,16.000000,-468.000000,894.000000
12.10.2024 12:07:00:486,986,1,2,0,128678.000000,100735.000000,29219.000000,14.000000,-465.000000,889.000000
12.10.2024 12:07:00:489,987,1,2,0,128671.000000,100733.000000,29219.000000,10.000000,-465.000000,890.000000
12.10.2024 12:07:00:492,988,1,2,0,128668.000000,100735.000000,29217.000000,14.000000,-466.000000,892.000000
12.10.2024 12:07:00:495,989,1,2,0,128668.000000,100736.000000,29215.000000,10.000000,-466.000000,890.000000
12.10.2024 12:07:00:499,990,1,2,0,128676.000000,100731.000000,29219.000000,10.000000,-463.000000,888.000000
12.10.2024 12:07:00:502,991,1,2,0,128674.000000,100737.000000,29217.000000,11.000000,-458.000000,889.000000
12.10.2024 12:07:00:505,992,1,2,0,128677.000000,100736.000000,29220.000000,12.000000,-466.000000,889.000000
12.10.2024 12:07:00:508,993,1,2,0,128676.000000,100735.000000,29219.000000,9.000000,-462.000000,893.000000
12.10.2024 12:07:00:512,994,1,2,0,128674.000000,100735.000000,29221.000000,12.000000,-465.000000,888.000000
12.10.2024 12:07:00:515,995,1,2,0,128669.000000,100735.000000,29226.000000,11.000000,-462.000000,885.000000
12.10.2024 12:07:00:518,996,1,2,0,128673.000000,100734.000000,29219.000000,17.000000,-465.000000,890.000000
12.10.2024 12:07:00:521,997,1,2,0,128672.000000,100733.000000,29225.000000,19.000000,-465.000000,891.000000
12.10.2024 12:07:00:525,998,1,2,0,128670.000000,100734.000000,29224.000000,16.000000,-464.000000,892.000000
12.10.2024 12:07:00:528,999,1,2,0,128678.000000,100734.000000,29223.000000,17.000000,-466.000000,890.000000
12.10.2024 12:07:00:531,1000,1,2,0,128679.000000,100737.000000,29224.000000,15.000000,-465.000000,883.000000
12.10.2024 12:07:00:534,1001,1,2,0,128676.000000,100735.000000,29227.000000,14.000000,-464.000000,885.000000
12.10.2024 12:07:00:538,1002,1,2,0,128676.000000,100737.000000,29225.000000,12.000000,-463.000000,885.000000
12.10.2024 12:07:00:541,1003,1,2,0,128677.000000,100740.000000,29229.000000,14.000000,-455.000000,891.000000
12.10.2024 12:07:00:544,1004,1,2,0,128684.000000,100743.000000,29226.000000,12.000000,-453.000000,888.000000
12.10.2024 12:07:00:547,1005,1,2,0,128685.000000,100741.000000,29234.000000,9.000000,-460.000000,889.000000
12.10.2024 12:07:00:551,1006,1,2,0,128694.000000,100748.000000,29231.000000,7.000000,-452.000000,891.000000
12.10.2024 12:07:00:554,1007,1,2,0,128688.000000,100746.000000,29233.000000,9.000000,-455.000000,892.000000
12.10.2024 12:07:00:557,1008,1,2,0,128692.000000,100745.000000,29236.000000,11.000000,-459.000000,895.000000
12.10.2024 12:07:00:560,1009,1,2,0,128695.000000,100749.000000,29239.000000,9.000000,-464.000000,888.000000
12.10.2024 12:07:00:564,1010,1,2,0,128690.000000,100750.000000,29242.000000,8.000000,-468.000000,897.000000
12.10.2024 12:07:00:567,1011,1,2,0,128690.000000,100745.000000,29241.000000,12.000000,-463.000000,896.000000
12.10.2024 12:07:00:570,1012,1,2,0,128691.000000,100744.000000,29241.000000,13.000000,-467.000000,894.000000
12.10.2024 12:07:00:573,1013,1,2,0,128689.000000,100740.000000,29243.000000,16.000000,-467.000000,891.000000
12.10.2024 12:07:00:577,1014,1,2,0,128686.000000,100743.000000,29244.000000,12.000000,-462.000000,890.000000
12.10.2024 12:07:00:580,1015,1,2,0,128692.000000,100741.000000,29242.000000,12.000000,-463.000000,890.000000
12.10.2024 12:07:00:583,1016,1,2,0,128687.000000,100740.000000,29251.000000,12.000000,-462.000000,891.000000
12.10.2024 12:07:00:586,1017,1,2,0,128685.000000,100737.000000,29253.000000,10.000000,-464.000000,893.000000
12.10.2024 12:07:00:589,1018,1,2,0,128681.000000,100739.000000,29250.000000,16.000000,-469.000000,887.000000
12.10.2024 12:07:00:593,1019,1,2,0,128679.000000,100734.000000,29246.000000,16.000000,-474.000000,888.000000
12.10.2024 12:07:00:596,1020,1,2,0,128676.000000,100741.000000,29249.000000,9.000000,-472.000000,888.000000
12.10.2024 12:07:00:599,1021,1,2,0,128675.000000,100738.000000,29252.000000,9.000000,-470.000000,892.000000
12.10.2024 12:07:00:602,1022,1,2,0,128673.000000,100738.000000,29260.000000,14.000000,-469.000000,886.000000
12.10.2024 12:07:00:606,1023,1,2,0,128682.000000,100746.000000,29262.000000,16.000000,-468.000000,889.000000
12.10.2024 12:07:00:609,1024,1,2,0,128686.000000,100745.000000,29264.000000,12.000000,-465.000000,887.000000
12.10.2024 12:07:00:612,1025,1,2,0,128684.000000,100750.000000,29268.000000,10.000000,-465.000000,889.000000
12.10.2024 12:07:00:615,1026,1,2,0,128693.000000,100753.000000,29270.000000,7.000000,-461.000000,891.000000
12.10.2024 12:07:00:619,1027,1,2,0,128690.000000,100758.000000,29273.000000,8.000000,-470.000000,894.000000
12.10.2024 12:07:00:622,1028,1,2,0,128691.000000,100761.000000,29279.000000,7.000000,-461.000000,891.000000
12.10.2024 12:07:00:625,1029,1,2,0,128697.000000,100765.000000,29276.000000,9.000000,-465.000000,887.000000
12.10.2024 12:07:00:628,1030,1,2,0,128688.000000,100764.000000,29282.000000,13.000000,-467.000000,889.000000
12.10.2024 12:07:00:632,1031,1,2,0,128692.000000,100765.000000,29285.000000,14.000000,-471.000000,886.000000
12.10.2024 12:07:00:635,1032,1,2,0,128691.000000,100763.000000,29281.000000,6.000000,-471.000000,892.000000
12.10.2024 12:07:00:638,1033,1,2,0,128691.000000,100766.000000,29286.000000,15.000000,-473.000000,886.000000
12.10.2024 12:07:00:641,1034,1,2,0,128690.000000,100767.000000,29285.000000,11.000000,-471.000000,887.000000
12.10.2024 12:07:00:645,1035,1,2,0,128682.000000,100765.000000,29280.000000,15.000000,-469.000000,886.000000
12.10.2024 12:07:00:648,1036,1,2,0,128689.000000,100766.000000,29290.000000,6.000000,-467.000000,894.000000
12.10.2024 12:07:00:651,1037,1,2,0,128689.000000,100770.000000,29281.000000,10.000000,-464.000000,888.000000
12.10.2024 12:07:00:654,1038,1,2,0,128692.000000,100773.000000,29279.000000,8.000000,-465.000000,892.000000
12.10.2024 12:07:00:658,1039,1,2,0,128687.000000,100779.000000,29282.000000,12.000000,-469.000000,892.000000
12.10.2024 12:07:00:661,1040,1,2,0,128689.000000,100777.000000,29277.000000,9.000000,-470.000000,886.000000
12.10.2024 12:07:00:664,1041,1,2,0,128691.000000,100779.000000,29275.000000,11.000000,-467.000000,891.000000
12.10.2024 12:07:00:667,1042,1,2,0,128693.000000,100776.000000,29276.000000,11.000000,-466.000000,889.000000
12.10.2024 12:07:00:671,1043,1,2,0,128692.000000,100780.000000,29269.000000,13.000000,-461.000000,896.000000
12.10.2024 12:07:00:674,1044,1,2,0,128692.000000,100779.000000,29272.000000,14.000000,-464.000000,894.000000
12.10.2024 12:07:00:677,1045,1,2,0,128694.000000,100775.000000,29273.000000,14.000000,-466.000000,893.000000
12.10.2024 12:07:00:680,1046,1,2,0,128685.000000,100780.000000,29273.000000,12.000000,-471.000000,892.000000
12.10.2024 12:07:00:684,1047,1,2,0,128682.000000,100777.000000,29271.000000,12.000000,-466.000000,891.000000
12.10.2024 12:07:00:687,1048,1,2,0,128686.000000,100779.000000,29266.000000,11.000000,-464.000000,889.000000
12.10.2024 12:07:00:690,1049,1,2,0,128689.000000,100777.000000,29257.000000,10.000000,-461.000000,888.000000
12.10.2024 12:07:00:693,1050,1,2,0,128684.000000,100777.000000,29262.000000,13.000000,-463.000000,891.000000
12.10.2024 12:07:00:697,1051,1,2,0,128683.000000,100779.000000,29259.000000,12.000000,-463.000000,887.000000
12.10.2024 12:07:00:700,1052,1,2,0,128684.000000,100776.000000,29257.000000,18.000000,-462.000000,893.000000
12.10.2024 12:07:00:703,1053,1,2,0,128679.000000,100778.000000,29251.000000,15.000000,-462.000000,883.000000
12.10.2024 12:07:00:706,1054,1,2,0,128674.000000,100777.000000,29250.000000,13.000000,-459.000000,888.000000
12.10.2024 12:07:00:710,1055,1,2,0,128681.000000,100775.000000,29255.000000,12.000000,-459.000000,889.000000
12.10.2024 12:07:00:713,1056,1,2,0,128678.000000,100775.000000,29245.000000,12.000000,-460.000000,891.000000
12.10.2024 12:07:00:716,1057,1,2,0,128683.000000,100776.000000,29246.000000,14.000000,-463.000000,891.000000
12.10.2024 12:07:00:719,1058,1,2,0,128681.000000,100774.000000,29245.000000,13.000000,-462.000000,890.000000
12.10.2024 12:07:00:723,1059,1,2,0,128683.000000,100770.000000,29242.000000,10.000000,-468.000000,888.000000
12.10.2024 12:07:00:726,1060,1,2,0,128676.000000,100774.000000,29239.000000,11.000000,-468.000000,887.000000
12.10.2024 12:07:00:729,1061,1,2,0,128677.000000,100776.000000,29242.000000,17.000000,-469.000000,891.000000
12.10.2024 12:07:00:732,1062,1,2,0,128674.000000,100774.000000,29233.000000,12.000000,-467.000000,890.000000
12.10.2024 12:07:00:736,1063,1,2,0,128674.000000,100773.000000,29234.000000,11.000000,-465.000000,886.000000
12.10.2024 12:07:00:739,1064,1,2,0,128681.000000,100769.000000,29233.000000,12.000000,-464.000000,892.000000
12.10.2024 12:07:00:742,1065,1,2,0,128678.000000,100773.000000,29235.000000,14.000000,-465.000000,885.000000
12.10.2024 12:07:00:745,1066,1,2,0,128675.000000,100774.000000,29230.000000,12.000000,-467.000000,893.000000
12.10.2024 12:07:00:748,1067,1,2,0,128668.000000,100769.000000,29231.000000,12.000000,-468.000000,887.000000
12.10.2024 12:07:00:752,1068,1,2,0,128676.000000,100774.000000,29233.000000,10.000000,-467.000000,889.000000
12.10.2024 12:07:00:755,1069,1,2,0,128671.000000,100773.000000,29228.000000,13.000000,-463.000000,891.000000
12.10.2024 12:07:00:758,1070,1,2,0,128674.000000,100775.000000,29234.000000,8.000000,-466.000000,887.000000
12.10.2024 12:07:00:761,1071,1,2,0,128680.000000,100773.000000,29227.000000,7.000000,-467.000000,890.000000
12.10.2024 12:07:00:765,1072,1,2,0,128681.000000,100771.000000,29228.000000,12.000000,-463.000000,894.000000
12.10.2024 12:07:00:768,1073,1,2,0,128681.000000,100770.000000,29231.000000,11.000000,-462.000000,891.000000
12.10.2024 12:07:00:771,1074,1,2,0,128683.000000,100774.000000,29231.000000,12.000000,-463.000000,894.000000
12.10.2024 12:07:00:774,1075,1,2,0,128687.000000,100775.000000,29229.000000,14.000000,-462.000000,888.000000
12.10.2024 12:07:00:778,1076,1,2,0,128690.000000,100778.000000,29231.000000,6.000000,-463.000000,888.000000
12.10.2024 12:07:00:781,1077,1,2,0,128685.000000,100779.000000,29227.000000,13.000000,-462.000000,889.000000
12.10.2024 12:07:00:784,1078,1,2,0,128685.000000,100777.000000,29232.000000,12.000000,-462.000000,891.000000
12.10.2024 12:07:00:787,1079,1,2,0,128691.000000,100776.000000,29227.000000,7.000000,-467.000000,888.000000
12.10.2024 12:07:00:791,1080,1,2,0,128681.000000,100776.000000,29231.000000,12.000000,-470.000000,891.000000
12.10.2024 12:07:00:794,1081,1,2,0,128686.000000,100778.000000,29226.000000,11.000000,-468.000000,890.000000
12.10.2024 12:07:00:797,1082,1,2,0,128689.000000,100773.000000,29228.000000,10.000000,-470.000000,892.000000
12.10.2024 12:07:00:800,1083,1,2,0,128687.000000,100776.000000,29229.000000,13.000000,-474.000000,887.000000
12.10.2024 12:07:00:804,1084,1,2,0,128693.000000,100778.000000,29226.000000,15.000000,-469.000000,891.000000
12.10.2024 12:07:00:807,1085,1,2,0,128691.000000,100774.000000,29230.000000,12.000000,-467.000000,887.000000
12.10.2024 12:07:00:810,1086,1,2,0,128695.000000,100781.000000,29232.000000,13.000000,-460.000000,892.000000
12.10.2024 12:07:00:813,1087,1,2,0,128697.000000,100780.000000,29231.000000,10.000000,-461.000000,886.000000
12.10.2024 12:07:00:817,1088,1,2,0,128692.000000,100781.000000,29226.000000,12.000000,-460.000000,888.000000
12.10.2024 12:07:00:820,1089,1,2,0,128697.000000,100782.000000,29229.000000,10.000000,-461.000000,887.000000
